# OpenSignals Text File Format. Version 1					
"# {""00:07:80:65:E0:2A"": {""position"": 0, ""device"": ""biosignalsplux"", ""device name"": ""00:07:80:65:E0:2A"", ""device connection"": ""BTH00:07:80:65:E0:2A"", ""sampling rate"": 1000, ""resolution"": [16, 16, 16, 16], ""firmware version"": 775, ""comments"": """", ""keywords"": """", ""mode"": 2, ""sync interval"": 2, ""date"": ""2022-2-10"", ""time"": ""17:19:13.655"", ""channels"": [1, 2, 3, 4], ""sensor"": [""EMG"", ""EMG"", ""EDA"", ""ECG""], ""label"": [""CH1"", ""CH2"", ""CH3"", ""CH4""], ""column"": [""nSeq"", ""DI"", ""CH1"", ""CH2"", ""CH3"", ""CH4""], ""special"": [{""SpO2"": [80, 40, 5, 4, 3, 3]}, {""SpO2"": [80, 40, 5, 4, 3, 3]}, {""SpO2"": [80, 40, 5, 4, 3, 3]}, {""SpO2"": [80, 40, 5, 4, 3, 3]}, {""SpO2"": [80, 40, 5, 4, 3, 3]}, {""SpO2"": [80, 40, 5, 4, 3, 3]}, {""SpO2"": [80, 40, 5, 4, 3, 3]}, {""SpO2"": [80, 40, 5, 4, 3, 3]}], ""digital IO"": [0, 1], ""sleeve color"": [""dark_blue"", ""red"", ""yellow"", ""red""], ""convertedValues"": 0}}"					
# EndOfHeader					
1	1	31608	32470	30548	27086
2	1	43865	37722	33887	34088
3	1	37009	35546	40054	28370
4	1	36941	42253	28177	43143
5	1	38430	33245	29940	35605
6	1	25824	44838	33214	43045
7	1	43815	30463	37212	26055
8	1	33876	40427	26660	31101
9	1	27638	37145	35232	35523
10	1	38476	34431	34739	38269
11	1	37175	31631	36421	42284
12	0	41130	35498	30904	26844
13	0	42958	42786	35958	39373
14	0	33574	44322	29494	44975
15	0	43259	38489	32565	42553
16	0	38660	38849	44868	44131
17	0	34868	42984	37773	39614
18	0	36160	34893	33340	25504
19	0	41498	40905	43939	44918
20	0	29592	32506	39416	30128
21	0	44064	41617	37482	43814
22	0	25914	38810	30437	27638
23	0	34909	31590	27654	38688
24	0	29536	38230	41060	27889
25	0	40548	27416	27442	31658
26	0	31578	39827	39686	44555
27	0	34798	37765	33114	40931
28	0	30486	37985	37174	33672
29	0	37206	26312	28520	33892
30	0	43322	44155	41994	39876
31	0	41308	26919	42738	25420
32	0	26570	28665	27873	37085
33	0	42410	27385	32898	37309
34	0	28049	42204	33361	36995
35	0	27540	39178	39259	28063
36	0	44206	35626	31328	28425
37	0	28937	34714	35498	31830
38	0	28866	37802	30640	37839
39	0	30500	35285	36625	39028
40	0	40317	30639	29796	34386
41	0	39249	26717	43010	36798
42	0	31036	31319	41257	44913
43	0	34750	38654	36121	26048
44	0	29365	37209	30105	39492
45	0	32106	31106	30355	44815
46	0	28187	27449	32676	25729
47	0	42836	43707	37907	27767
48	0	44923	36831	25609	39280
49	0	29160	44900	29966	36912
50	0	40288	38836	28646	27342
51	0	31107	38169	40409	27861
52	0	44610	37639	29538	30316
53	0	39611	41552	36517	30966
54	0	35481	36793	34943	31971
55	0	37362	32368	34332	26461
56	0	31752	40884	40510	44369
57	0	31272	36572	43373	27693
58	0	35882	29648	34309	29234
59	0	31810	41563	43935	38045
60	0	25022	25410	39049	25161
61	0	40247	39858	31345	42868
62	0	27918	39911	44491	44066
63	0	38100	34225	31600	29496
64	0	31758	30353	43339	44979
65	0	27285	41799	32497	38620
66	0	36010	35008	32107	34587
67	0	29362	31075	34813	26821
68	0	38657	33999	31215	25803
69	0	41287	37422	30819	38340
70	0	26863	43525	30689	41504
71	0	36175	30249	37651	39387
72	0	28872	37401	37235	28947
73	0	27474	37808	43129	41580
74	0	27197	35023	33048	41482
75	0	29133	30779	32851	42745
76	0	31219	31590	40786	38442
77	0	36906	39584	41625	30101
78	0	44556	42962	28097	30291
79	0	29920	36620	26501	34218
80	0	33330	25750	36730	31620
81	0	36447	44839	29250	25762
82	0	39593	37015	32441	25437
83	0	41286	33958	41063	34319
84	0	43892	31655	25816	38120
85	0	40321	39796	28430	41075
86	0	38261	42355	40120	27464
87	0	30636	43460	36396	33620
88	0	37544	26251	44489	31107
89	0	31856	41846	43087	37696
90	0	44252	44282	35202	38359
91	0	38225	29081	32360	38531
92	0	33386	28771	35824	37502
93	0	30548	35834	25077	26515
94	0	28386	30831	31678	42726
95	0	36427	34535	32782	42549
96	0	39625	28994	36480	25164
97	0	27879	42163	27634	32700
98	0	25225	44378	44457	43697
99	0	32758	32935	40517	29486
100	0	42556	37764	38896	44985
101	0	30422	26363	27347	31513
102	0	32268	35935	25850	27563
103	0	43670	34125	35254	30947
104	0	30336	43333	29057	27786
105	0	44417	43698	28765	40772
106	0	26396	37988	31446	32608
107	0	29715	28445	25646	40633
108	0	29969	42058	27081	44165
109	0	25548	29654	43220	34947
110	0	36256	37450	37662	42455
111	0	39220	42879	29694	28869
112	0	42144	32665	43300	44035
113	0	30807	38575	26276	41225
114	0	30892	43230	27450	26614
115	0	35561	38006	42259	44571
116	0	30727	35078	35711	43795
117	0	33807	36935	36778	26610
118	0	37570	35873	29766	30034
119	0	34625	32418	41525	43627
120	0	33185	25028	37889	32840
121	0	31168	36454	35990	35108
122	0	38571	43009	39536	37612
123	0	44001	32955	32226	34928
124	0	44477	44622	42120	41602
125	0	36069	32589	40032	38480
126	0	43824	35572	38976	31376
127	0	37351	36384	40397	38481
128	0	44840	29452	28445	42392
129	0	39406	35661	29519	36654
130	0	42120	32912	35000	26149
131	0	29996	27836	36300	43661
132	0	34038	31679	28207	27593
133	0	27938	26171	25847	37457
134	0	44782	31359	39387	33883
135	0	42023	30628	40962	27112
136	0	40100	26714	29072	38086
137	0	26517	36665	35865	29074
138	0	41872	36233	37733	29018
139	0	31690	42156	39153	30358
140	0	29550	37875	44924	33011
141	0	38527	25956	41126	41627
142	0	37236	41323	39927	30129
143	0	41614	30747	37330	38692
144	0	35490	42185	26286	29354
145	0	31083	41424	38584	26716
146	0	25063	31679	43034	29922
147	0	31284	39091	29487	31358
148	0	35436	44223	39459	36693
149	0	33307	36586	44762	35400
150	0	40033	39258	26548	44732
151	0	42884	44093	28688	36883
152	0	25856	43094	35705	43671
153	0	37612	36632	35854	29697
154	0	28522	41084	43790	27551
155	0	33673	44309	27424	26743
156	0	29850	31104	26994	35926
157	0	36371	27430	26718	35332
158	0	31181	37264	36881	30717
159	0	32983	34831	29062	29198
160	0	27802	25665	39590	33378
161	0	42185	35483	31033	33270
162	0	29086	35890	38029	33447
163	0	25570	32216	44289	28102
164	0	37933	39728	33676	34292
165	0	43929	28787	43911	36407
166	0	44973	36042	30075	39604
167	0	42447	33753	30848	33079
168	0	36940	42993	34504	32349
169	0	29771	43626	30585	32575
170	0	38840	25052	25606	44074
171	0	30741	33871	26169	37448
172	0	39675	39051	35572	41263
173	0	26348	30420	32070	40050
174	0	44451	29694	44762	28925
175	0	29833	44812	27872	40152
176	0	33294	38992	37698	39408
177	0	35813	27162	31353	26148
178	0	36865	36381	43133	41113
179	0	29241	40295	30251	29411
180	0	29877	30150	38167	36551
181	0	41880	28851	31750	38514
182	0	37259	44859	27937	42942
183	0	32857	34194	43025	43170
184	0	34592	37879	40835	35677
185	0	34889	29603	37889	35444
186	0	31801	29297	31719	28296
187	0	30776	38960	34651	43321
188	0	32222	35713	33738	41959
189	0	36087	31252	43642	39694
190	0	25388	42999	43209	35596
191	0	44035	34406	25263	37120
192	0	31829	38728	26943	39613
193	0	32237	28327	43722	40313
194	0	36787	37805	25412	32324
195	0	41678	35286	38517	30326
196	0	44283	33557	42035	39962
197	0	29290	27552	37877	36932
198	0	26812	43373	26849	25193
199	0	44421	32937	29904	35810
200	0	40668	25306	32357	40700
201	0	40867	34595	44702	41929
202	0	32546	26444	41950	29219
203	0	33398	44421	30844	32788
204	0	29136	30794	33217	41981
205	0	25234	31552	26274	26451
206	0	34065	30209	28719	44500
207	0	31563	33413	28646	26370
208	0	40231	27900	37864	32122
209	0	39550	33711	29827	38669
210	0	42404	29281	36302	42390
211	0	40897	41252	25104	40202
212	0	39998	39193	42003	38980
213	0	44323	36300	32510	42106
214	0	31695	42715	31971	25278
215	0	29214	25146	28338	32982
216	0	31590	27121	38753	40756
217	0	36900	27642	26606	39217
218	0	32953	29440	34994	44873
219	0	33779	38519	44911	25948
220	0	44459	33248	43202	34709
221	0	40638	35519	32298	42974
222	0	34420	33076	42200	29855
223	0	37609	26395	31273	39724
224	0	41366	41060	30790	42353
225	0	31034	43316	34764	34194
226	0	44285	31379	26543	31913
227	0	38493	44864	33517	28337
228	0	28752	27790	28959	26368
229	0	36685	37350	30127	32953
230	0	32848	25195	37721	42738
231	0	40341	35761	27264	44891
232	0	28810	25710	32181	26502
233	0	28456	31550	37109	43075
234	0	25046	27119	43468	35064
235	0	30618	38226	39760	32352
236	0	41109	44100	34072	28247
237	0	38327	40700	42091	44379
238	0	26106	26416	25468	25660
239	0	37087	40459	33310	32113
240	0	38404	44793	42788	28362
241	0	28704	42794	41056	42383
242	0	43785	32951	43659	35347
243	0	34754	30209	36469	27637
244	0	42215	41500	28284	41317
245	0	37357	26372	43630	39714
246	0	41536	40267	25573	31494
247	0	25378	29693	33645	42012
248	0	25794	29671	31619	44691
249	0	27960	33392	37092	27662
250	0	40917	29983	40128	36381
251	0	31924	26849	26444	26627
252	0	29632	43206	33932	44334
253	0	34573	44845	35989	26221
254	0	26214	36299	31809	44047
255	0	43295	41780	32001	39759
256	0	35711	43468	32225	37922
257	0	33948	44921	28884	33144
258	0	28519	43111	42809	39958
259	0	34769	38398	43099	36187
260	0	31864	40570	39239	41086
261	0	27672	37579	41635	42641
262	0	40279	32256	39055	42901
263	0	32069	31437	33707	30711
264	0	28531	38938	39308	34071
265	0	32003	27344	39171	37335
266	0	29195	28668	38987	31685
267	0	41018	41380	25813	41438
268	0	28280	43272	32721	25079
269	0	37195	32938	42663	31454
270	0	30568	44145	28481	32018
271	0	42244	37153	44872	27269
272	0	39677	25475	28694	31185
273	0	25009	35986	37417	34680
274	0	35846	42319	27898	34828
275	0	44001	38153	43130	33196
276	0	38899	37575	41369	36636
277	0	27804	32542	42425	42697
278	0	40241	34356	25861	41977
279	0	44037	26386	29380	28141
280	0	30122	38653	34510	32672
281	0	30775	34638	34376	30109
282	0	29173	26129	37186	30565
283	0	33976	43646	36530	25375
284	0	34489	26157	39711	37567
285	0	27711	38485	31974	34882
286	0	43356	25119	28155	37656
287	0	27372	26769	26477	42458
288	0	36546	27889	44791	37371
289	0	29961	26620	34470	33576
290	0	40024	41441	35775	42092
291	0	43313	44479	43554	36872
292	0	33500	31381	25311	42481
293	0	31680	30876	28115	33603
294	0	30616	38024	31354	36576
295	0	37945	34512	35205	44864
296	0	33518	44586	26594	40314
297	0	43923	41130	31497	37250
298	0	36235	26038	31737	30230
299	0	35594	25199	29322	29405
300	0	28523	28091	39768	40864
301	0	31831	33099	28384	35246
302	0	41874	33193	32948	25234
303	0	44299	36896	39592	39282
304	0	35366	32798	34352	30616
305	0	28773	43765	44935	31882
306	0	33649	32805	30471	36605
307	0	33811	34874	29447	39999
308	0	27855	44472	31258	40759
309	0	37079	25297	31697	27490
310	0	44899	29730	31020	26719
311	0	28655	42435	33394	25174
312	0	27440	38024	43721	26087
313	0	32869	29686	38019	29223
314	0	42922	25124	43550	31229
315	0	41331	33572	25241	36797
316	0	42272	27360	28955	33260
317	0	33379	39191	44492	34040
318	0	38122	32041	34141	37999
319	0	38931	43715	43288	41421
320	0	33912	38045	39319	26750
321	0	36742	39284	35140	30088
322	0	28019	37920	25602	25022
323	0	36255	38636	27652	35173
324	0	44674	30754	25932	38221
325	0	30845	28439	30494	41719
326	0	26219	35761	39105	35669
327	0	40789	28793	31577	36690
328	0	30399	44088	33701	28394
329	0	41025	27202	41999	44729
330	0	43384	36380	27239	33560
331	0	41048	41960	40926	37887
332	0	27848	27585	40922	37628
333	0	30608	37011	26558	40586
334	0	37442	36446	29994	42584
335	0	31483	34924	27098	28191
336	0	40923	38795	26996	36253
337	0	39152	44623	38158	30127
338	0	32647	30255	40351	29254
339	0	33421	36524	33547	26796
340	0	27940	43719	35387	29393
341	0	37759	42610	28693	31565
342	0	42715	41302	34808	40692
343	0	29442	33026	36240	36275
344	0	25474	40020	44661	44058
345	0	39322	37103	40982	36965
346	0	26163	33024	34363	37796
347	0	38848	28742	35152	41117
348	0	40501	32811	33932	29663
349	0	29636	37449	42169	37265
350	0	42161	26220	26188	27699
351	0	40982	32557	26438	43754
352	0	27829	26422	33412	28645
353	0	40499	30869	40625	40727
354	0	38891	27147	41884	29670
355	0	31916	33002	41289	31987
356	0	25073	33995	30095	27918
357	0	42111	27500	39002	35327
358	0	40085	29299	39426	40778
359	0	27491	35002	29563	43800
360	0	27147	26784	26961	29863
361	0	38853	26307	30979	42016
362	0	43711	29505	35363	41050
363	0	38914	29952	39509	30322
364	0	38991	32763	33762	28886
365	0	37982	34579	41401	32729
366	0	35277	29488	34831	32783
367	0	44883	39312	41735	32626
368	0	37069	29827	31667	37288
369	0	39304	37055	36577	39769
370	0	43289	41074	42479	42929
371	0	41191	38810	33983	34136
372	0	34861	29906	36744	30870
373	0	38462	25037	43697	26064
374	0	40770	25693	38438	36679
375	0	27157	28944	34194	27268
376	0	38778	27148	41507	32727
377	0	37181	36883	40940	39833
378	0	28489	26530	40479	36783
379	0	33750	29242	32864	39299
380	0	32490	25038	37353	26073
381	0	40921	35494	31469	29357
382	0	29288	38145	42038	42828
383	0	26929	29760	33758	31703
384	0	29096	38504	43684	34266
385	0	30183	30945	36532	31744
386	0	37234	44459	34437	41705
387	0	43272	29297	40177	37011
388	0	35885	27544	36041	41485
389	0	34632	32211	33443	33721
390	0	32706	36554	29008	29114
391	0	26551	34995	26071	35345
392	0	35156	32340	42163	33633
393	0	41617	27753	38973	44263
394	0	40765	31358	41219	28599
395	0	35720	35478	37930	43741
396	0	26353	25559	30244	38966
397	0	25518	43996	42426	37285
398	0	27565	38444	29950	29329
399	0	41305	36248	29031	27509
400	0	38769	34757	27990	43121
401	0	36582	27137	31391	36596
402	0	26806	36832	38297	32917
403	0	30519	36828	34512	35038
404	0	44150	32604	34593	27451
405	0	30227	43993	40849	44685
406	0	35847	25365	29579	37823
407	0	29513	42633	32346	37369
408	0	43015	44237	44493	26121
409	0	35210	43767	34066	32205
410	0	43625	41950	42726	43878
411	0	34434	27834	35934	44332
412	0	31702	27729	34165	34320
413	0	38531	25337	42322	32848
414	0	34165	42530	27647	33725
415	0	44693	25759	41798	27088
416	0	44416	37570	42753	35241
417	0	25855	28284	42362	42275
418	0	38197	34371	36773	26763
419	0	29307	34451	33965	28367
420	0	26685	35271	34385	44301
421	0	30959	40285	43733	26241
422	0	30565	39165	35757	36450
423	0	25136	26731	38705	32560
424	0	36754	39540	25329	30197
425	0	29953	38296	38201	43088
426	0	29999	33822	43912	42295
427	0	28468	44160	42489	38967
428	0	28460	26496	28213	31273
429	0	35883	33860	27383	26026
430	0	25121	32465	40876	37695
431	0	26679	32301	42214	33761
432	0	25845	25506	41325	34811
433	0	38351	35397	44589	26412
434	0	41430	27587	26360	36371
435	0	37695	33657	31349	31621
436	0	36819	39289	37315	28589
437	0	27239	28430	28050	32840
438	0	44987	27491	43672	35814
439	0	41279	37103	32577	39244
440	0	37625	27409	34788	25560
441	0	33285	32136	37998	38237
442	0	31240	35409	39142	32441
443	0	39022	40329	26047	40393
444	0	44309	26599	25559	26808
445	0	27302	39030	39930	41781
446	0	41097	44172	31634	44210
447	0	33986	29810	32042	36049
448	0	36549	43630	37994	38080
449	0	44184	44300	40425	41657
450	0	30020	30467	31575	26286
451	0	35545	39207	27591	40269
452	0	36455	26527	34750	44017
453	0	42242	31095	25622	32844
454	0	32416	33381	29022	28975
455	0	38893	41126	38041	42906
456	0	26796	42680	25728	33753
457	0	33776	38598	43863	37752
458	0	41549	36616	34447	25126
459	0	33267	39237	42441	36929
460	0	26718	34279	33598	27196
461	0	26939	38822	43353	44273
462	0	31440	36830	33508	34236
463	0	43990	32832	35562	44349
464	0	25668	33531	31857	26980
465	0	40694	30400	26666	32032
466	0	39122	38693	41436	25930
467	0	40393	32451	31249	29446
468	0	43137	40264	29059	44086
469	0	40178	41274	38140	36134
470	0	34955	40403	37847	29312
471	0	36942	28111	35428	38669
472	0	44351	36956	39590	42296
473	0	38835	27585	25814	36545
474	0	36615	27989	31536	30479
475	0	26443	27510	37519	35934
476	0	41830	26202	41995	25653
477	0	39051	30192	34735	25736
478	0	30302	34251	30955	37748
479	0	37126	43173	30964	28629
480	0	34736	27002	26213	40703
481	0	39176	39163	36346	28238
482	0	42625	26626	40592	40540
483	0	30621	32865	27164	28419
484	0	37563	30590	43799	33995
485	0	29672	25828	25170	31714
486	0	43070	27879	28277	36035
487	0	37202	35618	30279	43242
488	0	37539	44541	26283	39877
489	0	31869	35888	30458	30476
490	0	43949	42129	37823	41603
491	0	41316	27824	35736	42438
492	0	39877	31210	39548	40086
493	0	41275	34337	39475	28502
494	0	44419	42891	28445	43947
495	0	25888	25254	26018	28812
496	0	25805	42022	44661	40432
497	0	39212	35294	27882	41908
498	0	37659	28974	32898	37616
499	0	42923	29781	26604	38706
500	0	37323	29759	29661	41808
501	0	41905	25828	35849	38028
502	0	25992	34523	38145	38219
503	0	34990	35977	39777	30868
504	0	42058	28982	28604	26320
505	0	27600	39823	28312	31268
506	0	27927	32026	35410	41894
507	0	25379	38981	35428	30912
508	0	35121	34247	25492	44796
509	0	35817	34197	34673	41213
510	0	26374	39834	30028	38293
511	0	38743	27087	43117	43569
512	0	27874	25694	42563	35779
513	0	40764	27506	36177	30619
514	0	30522	43232	25819	38861
515	0	41021	39726	44774	32368
516	0	36158	35053	36424	28704
517	0	27194	39792	33121	44616
518	0	30375	26946	43286	27745
519	0	35800	34837	41326	33938
520	0	39164	40498	40026	32022
521	0	42186	32880	34237	38532
522	0	26864	25597	26618	37241
523	0	44302	41855	31710	40010
524	0	36373	44066	44015	25470
525	0	25769	35853	42287	40364
526	0	27078	40454	41290	40966
527	0	27269	33396	42553	27762
528	0	25595	41310	43811	38836
529	0	44799	27753	37122	25300
530	0	38012	25828	33481	31461
531	0	26045	28504	39970	42731
532	0	26526	43444	30865	26788
533	0	38312	44541	25355	39171
534	0	39841	29398	29840	38281
535	0	38735	25746	43080	34785
536	0	30933	30938	29855	39731
537	0	31518	43620	28562	30171
538	0	33306	31040	37701	34656
539	0	44786	41171	38038	43115
540	0	35025	36986	37661	30837
541	0	44355	39470	36068	42071
542	0	27510	33950	43331	42104
543	0	31919	33643	29235	30123
544	0	38464	25891	37429	28495
545	0	34598	29540	31083	33413
546	0	29950	41135	26690	26334
547	0	43004	35308	31193	35048
548	0	34586	36717	42880	36977
549	0	43590	26963	44011	32958
550	0	40794	34809	31440	39689
551	0	33290	43946	40856	43354
552	0	38018	43039	39985	37817
553	0	28566	33602	32458	37798
554	0	25163	28318	36442	44934
555	0	36676	38942	27286	26128
556	0	27902	26908	26648	34494
557	0	37649	41851	36878	29730
558	0	35342	30547	35435	25719
559	0	30105	36851	27641	32305
560	0	40434	43149	27990	41773
561	0	38165	34610	27582	42509
562	0	38953	40182	41835	40755
563	0	31606	32972	44070	27872
564	0	32327	28155	28396	27924
565	0	34439	34299	41902	41727
566	0	31362	37284	42822	37515
567	0	39023	26975	42784	30693
568	0	35860	42855	33086	34954
569	0	32849	41548	35886	37576
570	0	27076	33598	28861	26526
571	0	38484	35535	41075	28439
572	0	31231	38456	39334	38147
573	0	44665	41845	44937	27254
574	0	41866	26214	40143	40682
575	0	34023	29930	37516	26193
576	0	39390	33218	39275	40274
577	0	39908	27224	41696	34788
578	0	31458	41819	40414	38620
579	0	40131	29660	37300	34364
580	0	43818	27057	26472	32656
581	0	40579	34972	33492	34076
582	0	25559	32579	25751	32168
583	0	31486	37832	37830	34992
584	0	26579	34382	33785	27434
585	0	39083	42334	43074	31531
586	0	26443	44815	34800	44302
587	0	43670	25841	36083	38513
588	0	35034	40859	42119	41068
589	0	33969	40175	28443	38149
590	0	44394	38429	41016	41522
591	0	40353	29760	30503	34746
592	0	29920	34400	36940	30324
593	0	28505	43710	25590	43543
594	0	44845	25170	38006	35368
595	0	33057	43336	27655	41034
596	0	25419	25309	38731	44173
597	0	26516	25894	42891	44263
598	0	30892	31168	30882	44870
599	0	32424	41357	43283	38392
600	0	32468	28845	33908	29398
601	0	44421	31877	40387	32337
602	0	33160	30156	43616	27231
603	0	37758	27858	40578	44978
604	0	39358	26509	41303	26030
605	0	26574	28008	37225	28382
606	0	38209	40721	41108	38376
607	0	41135	40866	26670	36791
608	0	33151	42907	34425	40364
609	0	34038	33517	31658	30594
610	0	42451	34774	42284	34307
611	0	32529	25435	42653	41691
612	0	25745	29630	33769	38483
613	0	28668	44704	28259	44477
614	0	41568	44359	30189	40268
615	0	44377	36787	35007	44974
616	0	29154	42055	31300	32082
617	0	28447	42276	36755	31041
618	0	42831	32411	27449	35117
619	0	37594	34184	43300	31906
620	0	30534	41673	41518	35259
621	0	41581	29619	41265	43178
622	0	26051	42120	35324	38260
623	0	28054	44249	33995	42371
624	0	39787	37589	30576	27995
625	0	36543	39468	26730	35122
626	0	38745	43708	32150	26943
627	0	28534	28355	32740	33604
628	0	40974	31748	42105	44705
629	0	25765	28644	26693	35733
630	0	41500	35475	28035	44456
631	0	37177	28277	31242	30868
632	0	29742	28196	40751	40536
633	0	42219	37426	42171	25420
634	0	33770	26326	32913	36199
635	0	28131	44980	28538	36811
636	0	30938	29786	39777	39507
637	0	32240	26446	34691	42819
638	0	36624	38794	42128	34850
639	0	39256	37249	33470	28507
640	0	25796	41814	28662	37794
641	0	43128	30439	34168	38609
642	0	39868	26187	30319	40826
643	0	37101	33627	40167	32049
644	0	43685	38008	32145	42902
645	0	39595	33378	38389	39326
646	0	41591	33679	29857	32947
647	0	25912	36237	26588	28283
648	0	40565	25439	38947	43188
649	0	28096	44514	38449	25222
650	0	32437	36516	40708	43745
651	0	35282	40117	35090	25691
652	0	39723	33418	29340	30369
653	0	33296	44201	35871	32325
654	0	40741	41590	43554	29340
655	0	28723	39357	32904	29289
656	0	25684	37981	42973	40955
657	0	39034	44512	31170	42195
658	0	44648	25289	44491	40036
659	0	38870	30536	42763	40927
660	0	44832	41210	35357	31718
661	0	26700	25617	30783	30959
662	0	32512	37164	29487	38107
663	0	43534	34695	43299	35038
664	0	41272	27279	27488	36021
665	0	29130	25236	25402	35384
666	0	31137	42814	31756	28037
667	0	33952	33815	42428	35454
668	0	34812	38666	26466	30266
669	0	30342	37982	44066	28074
670	0	38620	36812	26414	38615
671	0	27649	39751	32673	40750
672	0	39498	30354	31728	41735
673	0	35574	35759	38456	36089
674	0	34968	42672	33654	38298
675	0	44085	25966	26508	37063
676	0	28983	26935	40055	26797
677	0	32045	27137	44579	25512
678	0	35217	39310	31793	42266
679	0	28503	29844	43438	32611
680	0	41110	27757	40761	35728
681	0	39595	38910	37394	29716
682	0	42517	42905	38099	28197
683	0	34717	36776	32259	36430
684	0	44389	30395	27189	40590
685	0	43359	37119	35307	40985
686	0	40773	32018	37474	29055
687	0	38051	32885	25850	37559
688	0	31426	36976	44953	32596
689	0	42088	28920	37434	37959
690	0	43508	27336	37364	26979
691	0	42494	33446	41751	43595
692	0	39009	39870	28189	29723
693	0	27407	43321	32883	35572
694	0	32872	27994	31658	29769
695	0	32932	30760	44450	30759
696	0	29602	33980	28829	31605
697	0	25449	30411	39150	40560
698	0	28964	27124	35015	25677
699	0	30384	39742	34062	43959
700	0	39101	34850	30491	32692
701	0	37362	32651	33857	44680
702	0	29201	40298	44686	27667
703	0	35372	42782	35722	43309
704	0	26326	42990	40267	42243
705	0	38392	43144	43765	29935
706	0	27586	32962	37715	39039
707	0	34454	26885	27227	31079
708	0	37742	33347	41618	34851
709	0	29502	44325	33005	33572
710	0	26585	40189	40177	42732
711	0	36134	32424	25112	26528
712	0	31755	32836	43088	41383
713	0	31207	39523	44246	29409
714	0	25896	44592	28240	36231
715	0	31901	41450	41190	33754
716	0	29356	39813	44900	33864
717	0	33751	27508	28452	29335
718	0	30033	41991	39049	25690
719	0	40657	26806	25153	43811
720	0	28365	27770	37536	42993
721	0	44798	30746	33563	32211
722	0	38551	40929	25585	28239
723	0	38029	38359	36938	31969
724	0	31915	35831	37654	34310
725	0	40211	40476	32032	44669
726	0	28024	32137	40782	38573
727	0	32279	32478	42885	32053
728	0	33844	38649	40239	44402
729	0	42395	32673	32580	29871
730	0	33555	32413	32792	43821
731	0	34340	25721	29284	39885
732	0	32164	29778	29653	25821
733	0	26423	30075	33547	29744
734	0	39374	38113	31575	41035
735	0	35206	36211	35795	30081
736	0	36759	29788	43248	27986
737	0	40786	26589	39159	44774
738	0	27965	30193	27428	40365
739	0	44913	40571	40861	42245
740	0	26372	32345	29607	37903
741	0	39699	34741	28821	37210
742	0	27015	42342	26806	32463
743	0	35898	29386	40737	34028
744	0	35206	36920	44345	38213
745	0	29177	37136	36788	43653
746	0	29708	41159	28036	37493
747	0	30797	34216	40007	41573
748	0	35286	41221	34263	30420
749	0	39234	29937	34609	34956
750	0	28154	35242	42025	41236
751	0	35371	42424	37093	26924
752	0	42734	28145	31186	31078
753	0	38077	35646	42169	35455
754	0	40609	26269	33621	26415
755	0	44573	35196	36177	26417
756	0	34328	25398	35852	32548
757	0	36363	31083	38295	41909
758	0	43288	30280	40082	37346
759	0	28370	25734	28634	42909
760	0	40558	25060	43263	26405
761	0	26726	31297	37229	32311
762	0	43362	37747	41523	26611
763	0	30267	30596	38567	28904
764	0	31174	31592	27886	27838
765	0	39691	41153	38327	36775
766	0	38468	31335	32392	25797
767	0	36399	44811	30136	26132
768	0	28209	41138	38802	43505
769	0	26534	33678	43364	34850
770	0	32629	31831	37795	33364
771	0	40929	35738	41526	40289
772	0	25733	43763	28657	30677
773	0	41386	41642	28412	29428
774	0	41316	26800	36254	37236
775	0	35488	42410	34761	33002
776	0	37699	26525	32336	26675
777	0	29444	25943	39177	29796
778	0	40965	37222	31560	37003
779	0	43926	26579	42199	28797
780	0	25863	43761	41271	29022
781	0	27892	30842	33579	41680
782	0	37406	25695	25547	40663
783	0	30624	26455	38809	44395
784	0	35005	27160	25393	34274
785	0	37049	29996	42011	37442
786	0	44432	25045	41708	26743
787	0	33922	44155	36320	32009
788	0	33999	39466	38543	38185
789	0	43547	30485	29822	32095
790	0	26569	30178	38710	35728
791	0	34368	30863	27672	32337
792	0	34868	37394	25786	41835
793	0	40663	35840	32712	32433
794	0	37549	37165	40737	42532
795	0	40719	42018	27432	33393
796	0	33064	41532	42710	31489
797	0	40383	34195	29232	28420
798	0	30095	37078	27604	36389
799	0	43221	41848	36852	29738
800	0	30216	33796	35542	35505
801	0	37638	40271	25779	44901
802	0	27857	29003	30250	26624
803	0	28318	39921	36102	28007
804	0	28390	36265	29690	39195
805	0	39750	34312	38853	41508
806	0	35409	38255	44673	42959
807	0	30930	44550	41395	27489
808	0	38201	37389	33719	27072
809	0	26085	39999	29258	41212
810	0	32221	29839	33227	35114
811	0	42747	27594	27605	33971
812	0	35664	25565	33590	30833
813	0	29024	29602	42112	34452
814	0	39166	41452	33320	32917
815	0	40738	38586	29442	44807
816	0	40912	30695	38823	35773
817	0	28284	36745	43278	26587
818	0	28491	34799	28545	40700
819	0	25584	39640	44280	31183
820	0	25132	41358	31854	43498
821	0	35954	33251	30449	37290
822	0	42458	36033	25541	35281
823	0	28568	37773	31310	38379
824	0	44699	25470	39636	27880
825	0	44278	31049	29102	44766
826	0	30154	34090	33295	40737
827	0	38371	36145	36902	40842
828	0	25033	33884	35949	25112
829	0	41861	42277	40853	32607
830	0	35121	37319	30701	38231
831	0	28282	37644	27969	29307
832	0	32690	30043	41905	27600
833	0	25005	27470	25641	43757
834	0	27311	42674	41253	41653
835	0	36789	34194	41650	27658
836	0	34300	37908	44918	42512
837	0	30112	29136	40501	39717
838	0	27834	40831	39688	40324
839	0	38816	28442	43871	30744
840	0	33159	27134	42817	37597
841	0	36298	27443	44572	27050
842	0	27975	40751	29819	42746
843	0	31220	43528	33218	41311
844	0	25157	32585	28880	40423
845	0	28289	44014	40468	41571
846	0	31011	25431	36959	25822
847	0	41057	38654	25957	37049
848	0	31128	40947	35009	39342
849	0	41261	29722	31883	35418
850	0	25910	41358	25112	44082
851	0	35142	27134	34584	39521
852	0	29754	38262	36676	36737
853	0	43612	34512	36301	40450
854	0	32267	29303	42789	31255
855	0	36274	38304	39062	43232
856	0	41337	42473	32016	29775
857	0	42895	29089	36296	31824
858	0	34291	33421	31426	32318
859	0	41343	42581	30308	30789
860	0	41466	38688	43908	30528
861	0	26604	36083	35177	35668
862	0	42891	25166	28524	37322
863	0	42734	34664	36984	27696
864	0	42981	42582	37891	30675
865	0	27680	43750	32430	39672
866	0	33583	26578	32180	43838
867	0	31478	33767	29791	27616
868	0	41960	43304	37335	41672
869	0	36575	26393	29524	36370
870	0	32848	37608	40060	38894
871	0	38287	41465	25281	37691
872	0	38024	35207	42499	39341
873	0	29686	31580	25793	43191
874	0	39341	33047	28990	29122
875	0	38395	40273	41439	34398
876	0	37069	39202	41376	34855
877	0	41576	28925	42515	39455
878	0	26102	41025	43609	43091
879	0	42396	34691	37226	39565
880	0	25772	30287	39682	30397
881	0	29180	35415	41889	35919
882	0	32427	39080	33256	32317
883	0	39894	25030	37632	31227
884	0	39408	38852	43849	39279
885	0	33458	36111	41103	28372
886	0	40981	41798	27073	25155
887	0	27849	39878	42820	38545
888	0	39255	44515	38345	25797
889	0	44483	26061	36538	33536
890	0	26551	29241	31039	39362
891	0	41447	29318	37345	31885
892	0	29239	30284	37613	43436
893	0	37743	36369	25447	44579
894	0	27906	31404	41213	27003
895	0	32187	43507	26740	30006
896	0	37211	34976	37109	32382
897	0	29816	44444	37591	26545
898	0	25916	36122	40669	29029
899	0	37555	44740	36520	43807
900	0	40235	38748	30513	44234
901	0	40317	25539	35307	37769
902	0	29082	33426	42141	25838
903	0	32355	40046	29235	38043
904	0	30386	44232	35690	26998
905	0	40160	39008	26078	37982
906	0	40134	33857	27012	32406
907	0	43258	34205	27418	32280
908	0	25041	43387	28105	40080
909	0	26664	39436	39238	33302
910	0	25050	42911	37319	40734
911	0	37315	42414	32262	26321
912	0	27305	25678	25361	30856
913	0	36513	25120	41826	34351
914	0	32367	27235	36187	43982
915	0	29023	39398	30754	34615
916	0	32839	29603	29953	32917
917	0	39333	34855	39483	40379
918	0	37765	41787	44557	38525
919	0	27622	40966	28973	41599
920	0	26424	25740	27760	44869
921	0	33312	35104	43698	28374
922	0	43297	25533	38058	28712
923	0	30791	41375	30825	34241
924	0	43567	38509	38877	26460
925	0	38305	41730	37197	35680
926	0	33322	40003	40409	41031
927	0	27278	31781	39955	26591
928	0	43692	43409	28565	44893
929	0	37491	30783	34241	33361
930	0	30773	28495	38102	26298
931	0	36688	33498	40573	44839
932	0	36611	31142	39212	40082
933	0	32191	26934	28898	42513
934	0	34413	36927	32174	37063
935	0	44497	26367	40728	42784
936	0	40621	27402	33505	27133
937	0	42269	34809	41610	44954
938	0	28241	38219	30784	27749
939	0	40797	39213	38294	43536
940	0	25298	38562	38900	30520
941	0	32966	37072	28755	32918
942	0	33166	33643	39069	27114
943	0	26310	25317	31472	29377
944	0	32474	43609	34375	42728
945	0	29804	32804	40379	44085
946	0	27632	29180	42136	43978
947	0	31475	42325	32829	41805
948	0	42061	35605	35956	39748
949	0	30431	38343	36428	32161
950	0	26787	29380	40929	33069
951	0	38990	43500	27150	39108
952	0	39632	33670	30602	31093
953	0	39104	31224	33283	35871
954	0	40924	37910	30617	34593
955	0	38433	30591	32805	36263
956	0	25544	40689	32592	34203
957	0	27680	28073	38335	40298
958	0	25185	42529	28614	35685
959	0	28759	29991	32864	38420
960	0	28048	25346	42487	33799
961	0	30678	29713	33433	32896
962	0	32186	44511	37845	34904
963	0	37426	28266	30941	31232
964	0	25773	42002	28902	26658
965	0	28136	26973	37390	37527
966	0	40132	29156	29105	34887
967	0	34249	36215	29641	26778
968	0	41956	31224	26174	31834
969	0	42128	30728	43319	43636
970	0	43624	38810	43511	25871
971	0	26622	34750	28226	28362
972	0	44290	30092	33162	43073
973	0	34207	34852	25386	41222
974	0	28393	28918	41554	41737
975	0	42088	39607	40664	34199
976	0	26660	40703	40477	36728
977	0	29545	31269	33505	30839
978	0	30814	36800	25247	29173
979	0	40785	31973	32482	37521
980	0	28381	30420	28245	44130
981	0	36604	37936	43922	28438
982	0	42727	41057	36583	34422
983	0	32676	27728	29174	41195
984	0	38901	28796	25052	27940
985	0	36123	29050	29182	37064
986	0	42096	31889	39592	39109
987	0	25428	37770	25140	28583
988	0	38654	27217	39080	36808
989	0	41048	34977	39310	30297
990	0	37384	38230	40493	28517
991	0	28323	33316	35450	44858
992	0	26301	28518	29062	28139
993	0	38683	38849	42697	31838
994	0	34079	44289	35449	32550
995	0	30766	29687	25411	35845
996	0	28763	25689	40522	29139
997	0	43331	29615	26675	38155
998	0	44627	31291	31197	27642
999	0	38206	37565	43175	25908
1000	0	31966	27371	37645	44397
1001	0	44879	27090	29461	42900
1002	0	33782	27358	30842	37366
1003	0	36897	26552	29250	34712
1004	0	44181	34394	26425	35131
1005	0	40645	35652	43952	30544
1006	0	28811	33576	43420	41965
1007	0	29762	44553	28641	30570
1008	0	33621	44256	33441	43740
1009	0	27755	43753	29934	36895
1010	0	26460	40705	39571	28357
1011	0	33886	28730	26383	44081
1012	0	35100	29018	29170	25159
1013	0	36734	35814	43632	26680
1014	0	33929	42959	31566	25351
1015	0	38891	43558	43823	35697
1016	0	40595	27975	27967	37899
1017	0	40939	36154	33753	37136
1018	0	35921	30727	25003	30563
1019	0	37780	27588	33609	29819
1020	0	30092	36085	26943	27756
1021	0	37932	37752	34907	38579
1022	0	36072	36366	28770	28264
1023	0	27895	39654	34678	37080
1024	0	38466	43671	32404	40808
1025	0	26540	25971	28419	34001
1026	0	44334	42899	27789	43445
1027	0	35253	34857	36440	42058
1028	0	29518	27041	32047	32722
1029	0	37511	36379	33755	40507
1030	0	37193	38221	32347	44387
1031	0	36712	32376	41961	30931
1032	0	40433	33640	26105	42016
1033	0	34090	41725	26221	38694
1034	0	38771	40578	33104	40086
1035	0	34989	36283	32383	27350
1036	0	42208	26807	41054	27911
1037	0	38030	34532	30197	28834
1038	0	41394	44523	26049	25750
1039	0	26417	34851	30487	35363
1040	0	31055	27705	44683	36875
1041	0	30358	28560	34165	27329
1042	0	37838	25177	35930	39207
1043	0	27017	38989	38987	34327
1044	0	40713	29558	35111	35692
1045	0	34555	35310	41384	30304
1046	0	27291	29987	41954	43445
1047	0	34265	29416	26845	27625
1048	0	36895	35741	27258	43036
1049	0	30156	36195	33476	28938
1050	0	29334	29721	36280	44157
1051	0	28155	27308	29995	42798
1052	0	28052	38273	37348	33028
1053	0	37316	30600	38440	33010
1054	0	33830	34029	30546	44232
1055	0	39884	42494	44332	26127
1056	0	25049	27514	38760	41311
1057	0	39583	35142	35113	41604
1058	0	42173	37572	36692	39794
1059	0	37129	28822	42007	40692
1060	0	31649	42373	33657	35132
1061	0	25124	31591	27562	31215
1062	0	26640	31349	25889	26849
1063	0	30021	37343	36939	39331
1064	0	42044	33572	27678	43941
1065	0	40073	28480	41453	31013
1066	0	44879	28008	39462	31476
1067	0	27549	37029	27513	40745
1068	0	38065	42416	34454	34311
1069	0	32249	38963	36911	42371
1070	0	32216	42335	31632	36999
1071	0	39271	28824	30197	29135
1072	0	26257	39399	30744	26000
1073	0	26773	38388	36024	43858
1074	0	39022	39340	25132	39231
1075	0	30473	36985	37569	31288
1076	0	34696	26261	28364	38667
1077	0	29792	43160	28644	25629
1078	0	38524	28516	41416	26699
1079	0	36108	28166	34802	30406
1080	0	37703	44277	39275	42748
1081	0	33628	30824	36104	30885
1082	0	28096	29688	38031	25280
1083	0	28659	40520	43082	32419
1084	0	30069	37215	30099	26259
1085	0	42741	31213	38194	30239
1086	0	38148	35450	36742	31133
1087	0	28331	38321	28894	36101
1088	0	38106	43035	43358	36148
1089	0	29852	34451	40426	34827
1090	0	25290	43578	32143	38399
1091	0	25867	40033	26483	38566
1092	0	38208	27111	26754	37640
1093	0	32311	35904	25742	27979
1094	0	36483	41320	27878	27391
1095	0	31939	27773	38709	25852
1096	0	35615	44272	34154	35908
1097	0	40347	30659	31139	28762
1098	0	30219	31238	34567	26083
1099	0	39426	27383	37377	32051
1100	0	29069	39459	35048	25906
1101	0	41672	42592	33172	44777
1102	0	43048	28872	25435	28929
1103	0	38132	32639	27863	36010
1104	0	42688	44284	43908	38289
1105	0	38405	33266	31866	39138
1106	0	37139	35806	28405	29554
1107	0	35774	31156	28106	38938
1108	0	26832	33182	39759	34726
1109	0	37553	28304	35017	33717
1110	0	35611	36721	35859	39797
1111	0	27526	40585	37068	37085
1112	0	40660	37241	32436	37571
1113	0	41533	42272	41465	29846
1114	0	30440	38015	44207	39995
1115	0	35249	34991	37387	32166
1116	0	29299	30471	44100	29995
1117	0	36835	32190	32741	43385
1118	0	34640	25477	31316	33667
1119	0	32390	43454	32193	36630
1120	0	27184	43585	34386	42102
1121	0	40706	31270	29114	34704
1122	0	30000	38286	39512	28219
1123	0	36228	41236	28649	31735
1124	0	35766	38767	27956	33340
1125	0	43590	44065	34797	27426
1126	0	42932	40581	25870	38046
1127	0	42655	33566	37327	32229
1128	0	27513	33472	36393	26704
1129	0	26869	33309	31737	32013
1130	0	27845	35927	28296	39883
1131	0	42092	27719	33868	28745
1132	0	38876	36649	44951	37486
1133	0	25413	37403	31081	32138
1134	0	34736	39000	37391	34048
1135	0	40308	26648	29369	41760
1136	0	42428	32941	44616	40972
1137	0	39302	30184	37879	33947
1138	0	31027	31349	30836	35897
1139	0	35315	37251	26910	29322
1140	0	35580	34487	33041	29275
1141	0	39813	42958	39915	25509
1142	0	43296	30214	34623	36700
1143	0	39841	33835	39035	26025
1144	0	38360	31082	40393	40122
1145	0	38442	44359	26426	35003
1146	0	42466	44041	43833	38039
1147	0	34191	28302	25728	37722
1148	0	35426	40586	40885	30378
1149	0	32700	41721	40652	35856
1150	0	42610	33569	26502	43311
1151	0	38763	40011	26349	28180
1152	0	36128	31725	39474	26063
1153	0	25906	40938	42114	34767
1154	0	42698	29805	42476	28093
1155	0	27508	40252	31715	41329
1156	0	38475	39361	30142	42353
1157	0	26035	27257	36215	38607
1158	0	31425	30032	38015	42441
1159	0	34963	28000	26043	31433
1160	0	27618	37889	41889	44415
1161	0	25644	41733	33605	36173
1162	0	39075	40484	29251	30672
1163	0	44953	44430	33593	27857
1164	0	44934	25086	25238	32580
1165	0	41027	25839	39363	30053
1166	0	43717	34272	32334	26219
1167	0	43521	35808	44235	28345
1168	0	35304	27978	29012	33191
1169	0	34554	25218	26532	40678
1170	0	26513	43144	25879	44250
1171	0	35116	29615	27097	36001
1172	0	31297	29192	42322	38939
1173	0	38025	33427	29559	33817
1174	0	38946	27522	36427	39542
1175	0	36076	40845	37387	32804
1176	0	26074	32398	32208	40798
1177	0	26073	28175	34146	33408
1178	0	39895	38499	31893	32506
1179	0	38686	28576	34142	42112
1180	0	37739	37166	34815	25469
1181	0	44217	32228	26509	39014
1182	0	41074	34899	30014	32416
1183	0	38465	35752	36875	33679
1184	0	28213	29530	33968	44781
1185	0	30380	31224	30351	29218
1186	0	36070	40760	31631	41229
1187	0	32214	40754	38931	40525
1188	0	37677	31842	35682	32442
1189	0	41012	29031	37034	33002
1190	0	41693	36844	33967	37531
1191	0	33809	32249	32357	27596
1192	0	41057	29714	33954	39201
1193	0	30859	33427	28520	26043
1194	0	26272	41405	40253	26911
1195	0	26705	26842	37326	34341
1196	0	26354	40119	30916	36380
1197	0	29396	40468	38102	28796
1198	0	33076	39508	28000	43521
1199	0	39743	37707	40796	44939
1200	0	44943	40485	25740	35941
1201	0	30742	41525	39916	35570
1202	0	32880	41879	41533	44749
1203	0	33705	43638	26007	43049
1204	0	38750	42997	44067	36774
1205	0	26175	41461	30787	44457
1206	0	25907	37380	31553	32231
1207	0	42398	27934	40524	35300
1208	0	27684	31893	29768	42989
1209	0	29750	42031	25740	39854
1210	0	26500	30204	30464	43294
1211	0	43268	44076	25770	34596
1212	0	31657	25778	43968	28495
1213	0	36818	27120	33865	41411
1214	0	38212	33362	26338	41991
1215	0	32804	28460	35473	37362
1216	0	34559	34262	42636	36558
1217	0	33952	36763	27992	31373
1218	0	37717	39951	26152	27817
1219	0	31232	44763	44710	33074
1220	0	38252	29125	27291	31878
1221	0	36586	43427	35721	31099
1222	0	28084	27080	29934	34937
1223	0	36254	37687	27432	42399
1224	0	30347	29245	29447	43399
1225	0	35541	26652	25638	28170
1226	0	34924	36546	30335	41917
1227	0	33621	28505	40847	32992
1228	0	44021	25050	42135	28927
1229	0	38113	39193	29953	31122
1230	0	43565	37598	41466	31503
1231	0	35404	41132	44389	27261
1232	0	27796	33809	32279	39686
1233	0	41935	25230	28495	38469
1234	0	27113	40502	36481	32622
1235	0	26820	43255	25723	32732
1236	0	39515	28984	28216	32010
1237	0	31285	28502	26370	38101
1238	0	25249	33677	44585	25332
1239	0	34818	36418	27374	35962
1240	0	44246	44051	36208	28516
1241	0	30036	35272	42298	35289
1242	0	26416	26307	37267	26924
1243	0	30343	27736	37372	25957
1244	0	44723	33072	28394	39402
1245	0	36066	33694	33748	44936
1246	0	39225	40966	27233	42947
1247	0	31627	34185	37522	28775
1248	0	26816	26565	27283	29744
1249	0	35750	42839	39838	33665
1250	0	44418	41248	34158	36001
1251	0	40511	42444	40104	25758
1252	0	28133	42181	40654	43328
1253	0	26659	26492	37910	31377
1254	0	25804	31211	42465	44076
1255	0	41377	33848	26294	41552
1256	0	26672	41841	44924	31271
1257	0	28453	40233	25202	42536
1258	0	36278	34408	35214	28155
1259	0	38728	27155	35330	30612
1260	0	41311	25476	43777	33480
1261	0	39270	32389	42820	38401
1262	0	34960	42132	26667	41002
1263	0	25994	39702	30630	41773
1264	0	32960	42070	29135	37917
1265	0	38808	41108	39348	25754
1266	0	42813	30718	29958	34730
1267	0	29059	31623	25005	42450
1268	0	29446	31180	27978	25936
1269	0	41750	34911	27895	39897
1270	0	31944	25196	39938	44238
1271	0	31113	44994	29236	37443
1272	0	36755	38488	40406	38295
1273	0	30559	43866	39033	43048
1274	0	43533	39873	32453	44102
1275	0	27629	41938	31239	31039
1276	0	32417	29785	43708	26259
1277	0	39374	29480	39696	26099
1278	0	35457	29521	27319	33375
1279	0	34004	35650	35925	34233
1280	0	40302	30956	40453	42863
1281	0	26109	36666	40291	36175
1282	0	43527	37624	34152	42619
1283	0	28762	32154	39527	43937
1284	0	26301	26497	37096	37301
1285	0	39171	42026	32542	29681
1286	0	36412	40845	25286	28505
1287	0	39130	36872	35898	35628
1288	0	35492	44352	35714	35301
1289	0	35769	31363	27650	30337
1290	0	28462	33762	26336	34872
1291	0	27847	26478	29786	41656
1292	0	27604	32178	38415	38568
1293	0	32366	29591	37225	44280
1294	0	41222	27705	36170	35189
1295	0	31152	34200	34079	42820
1296	0	41775	27649	38374	25125
1297	0	36944	36706	34471	33222
1298	0	44529	25581	35659	35586
1299	0	40805	36731	36299	27592
1300	0	41378	30318	32960	34221
1301	0	37780	35397	31377	29583
1302	0	41571	40039	31714	31617
1303	0	36494	25353	36625	44838
1304	0	32549	28615	41029	43723
1305	0	25682	36587	25668	31313
1306	0	38320	32513	35199	43596
1307	0	26680	26426	38876	40938
1308	0	31979	29028	31158	41936
1309	0	38343	33563	39876	31346
1310	0	42216	32728	41063	28770
1311	0	36669	31329	38962	26265
1312	0	28309	29721	35067	36530
1313	0	27503	28946	37329	30143
1314	0	33694	34916	27990	27643
1315	0	33722	29502	28508	25427
1316	0	38193	39891	27146	40370
1317	0	29667	26486	28687	33097
1318	0	44671	43489	39264	41041
1319	0	41911	31070	28106	30877
1320	0	40843	33826	42067	30742
1321	0	38138	37431	41110	41309
1322	0	35753	30651	33843	27126
1323	0	25236	38026	39399	29311
1324	0	33699	39193	34661	31378
1325	0	44715	44787	25159	43775
1326	0	34790	30490	36719	36083
1327	0	33991	41681	30431	30526
1328	0	37393	27318	44772	37875
1329	0	37374	32335	29969	27539
1330	0	39318	35991	28619	43169
1331	0	32335	27715	25384	44251
1332	0	28494	38960	32708	33674
1333	0	37923	35966	39673	32359
1334	0	32624	42884	29266	31798
1335	0	28676	41696	27744	32674
1336	0	44999	32399	40161	42052
1337	0	29050	35810	29964	43305
1338	0	40064	26787	37140	34109
1339	0	37293	43259	39956	33588
1340	0	38537	43916	31637	30412
1341	0	31843	26330	36464	31416
1342	0	37160	27358	35644	33254
1343	0	44166	27478	37697	42127
1344	0	37313	42165	41371	27629
1345	0	42243	27003	40451	38171
1346	0	41667	43795	35045	30502
1347	0	32877	33034	36307	31787
1348	0	34012	28538	35597	36860
1349	0	34187	42918	38348	41162
1350	0	32796	25978	26211	33847
1351	0	34411	29194	35652	44264
1352	0	44182	33043	43993	30042
1353	0	35450	26337	44717	34370
1354	0	41300	43484	42403	44315
1355	0	36314	39503	25875	29262
1356	0	36545	32566	25478	26108
1357	0	42355	40141	38812	32931
1358	0	27636	33483	26213	27227
1359	0	37388	40042	35050	43612
1360	0	28723	27089	28351	44363
1361	0	29754	39636	36780	26876
1362	0	44726	42917	28747	32305
1363	0	39666	31278	38780	41629
1364	0	25457	34195	25741	38150
1365	0	26226	31010	25342	25328
1366	0	38189	37413	37552	38623
1367	0	26532	29180	30978	32784
1368	0	26232	35853	44255	39865
1369	0	39967	34815	32488	40478
1370	0	35062	30287	27355	37364
1371	0	30026	40253	29208	28724
1372	0	28786	25153	34302	31829
1373	0	31988	41331	25944	44004
1374	0	35185	26032	42898	30892
1375	0	38489	28369	27916	36711
1376	0	29605	37161	28008	32867
1377	0	41037	25219	25604	26215
1378	0	37397	33343	43614	38672
1379	0	27608	36912	40924	38523
1380	0	28259	27662	26393	28412
1381	0	31808	44354	32371	34283
1382	0	38289	30650	38124	43151
1383	0	44525	33521	37836	44346
1384	0	33019	26006	26654	37222
1385	0	31475	38891	27174	25172
1386	0	28244	25849	42256	42672
1387	0	34295	34958	36594	34742
1388	0	30047	43109	25086	39680
1389	0	40672	30163	35883	30143
1390	0	31562	26648	41033	28142
1391	0	27049	28626	43020	28788
1392	0	40933	44838	41274	36019
1393	0	41837	44452	37071	36346
1394	0	44215	27763	31869	36302
1395	0	29420	44804	25845	43773
1396	0	30080	44762	28879	41177
1397	0	31469	31206	42253	26404
1398	0	37201	43189	30039	36674
1399	0	27613	28925	28352	35864
1400	0	42726	27856	37625	38347
1401	0	39689	37036	27577	25758
1402	0	33108	36833	37471	26772
1403	0	34872	40722	30319	27562
1404	0	40752	38159	28132	33898
1405	0	32012	37269	31360	42932
1406	0	26786	26396	26527	43722
1407	0	27147	28636	38878	27401
1408	0	44545	37048	39158	25760
1409	0	41671	33188	36087	34662
1410	0	36943	27453	31720	33691
1411	0	27980	38170	28422	37867
1412	0	34779	29719	44603	28198
1413	0	37763	31591	33011	44106
1414	0	37441	31361	32495	32099
1415	0	44472	33259	25364	42406
1416	0	38682	34942	30525	39757
1417	0	28233	27278	28694	33038
1418	0	42046	40217	41484	35492
1419	0	28653	38612	25233	31177
1420	0	33073	37934	42611	25372
1421	0	40200	25505	42245	43051
1422	0	27937	36500	35296	28574
1423	0	42520	41897	32597	40761
1424	0	31256	39770	34733	39540
1425	0	40659	43670	25603	39322
1426	0	44926	30915	32115	26034
1427	0	25752	26648	38630	38303
1428	0	39121	36921	25828	41990
1429	0	35455	36949	33312	26597
1430	0	42489	30027	41146	33871
1431	0	43919	25203	44939	25970
1432	0	25778	25058	32340	31950
1433	0	32951	44147	38092	40890
1434	0	30280	29132	25964	41890
1435	0	39312	40120	42896	25650
1436	0	32838	36463	35798	29375
1437	0	39720	41033	32663	40794
1438	0	33150	27922	39992	27984
1439	0	36596	36634	33015	25542
1440	0	37932	34539	39123	30506
1441	0	35699	36605	36610	43155
1442	0	35728	39763	44722	29820
1443	0	40710	25005	25565	40730
1444	0	41704	39095	31065	27285
1445	0	25170	32864	41227	30010
1446	0	42558	37915	43320	34774
1447	0	25914	44226	31811	38490
1448	0	28251	41685	32753	39643
1449	0	25024	30834	29045	36075
1450	0	26831	25281	41044	36320
1451	0	41010	37575	37583	25109
1452	0	28923	28165	44451	41296
1453	0	37037	31528	31498	33746
1454	0	42271	44966	28773	42386
1455	0	32757	25033	28891	38213
1456	0	44119	38238	26954	28590
1457	0	28333	25852	40453	31796
1458	0	36303	35789	30064	29341
1459	0	31812	43267	44886	44095
1460	0	40186	41325	30863	36946
1461	0	28989	25196	35082	44124
1462	0	42947	30599	25564	42072
1463	0	42105	30366	36724	38947
1464	0	38516	38841	42624	35448
1465	0	36543	39054	28745	37132
1466	0	27814	32259	25606	29102
1467	0	25467	25436	31418	36625
1468	0	30471	37961	25683	34630
1469	0	36539	40342	28999	34908
1470	0	29185	40033	30561	28282
1471	0	37030	41900	30863	25343
1472	0	44764	25844	36816	41847
1473	0	37792	41427	25957	25361
1474	0	38335	30684	42932	36964
1475	0	43162	28894	30637	36183
1476	0	27411	44621	40274	35247
1477	0	26180	43798	31474	39392
1478	0	33645	28629	27335	38354
1479	0	29200	28078	43420	26103
1480	0	31410	38694	42707	36418
1481	0	41143	26359	34771	28690
1482	0	25117	39636	34447	33656
1483	0	41856	41702	28524	31413
1484	0	29059	28217	43366	41357
1485	0	27068	27871	25546	31004
1486	0	28795	28852	38913	38855
1487	0	32330	28387	32253	33513
1488	0	28523	43820	33705	34518
1489	0	33384	31132	32242	30117
1490	0	37350	35162	42140	41693
1491	0	31264	33447	35022	43820
1492	0	30372	28155	33596	28147
1493	0	39070	27033	26629	38351
1494	0	38728	40930	33875	43369
1495	0	29827	43236	36705	29586
1496	0	43925	34496	35444	35568
1497	0	25064	32598	32375	44388
1498	0	42788	34730	43966	29532
1499	0	38070	42938	25350	32482
1500	0	33486	34485	30871	39939
1501	0	39385	44701	38430	44889
1502	0	35304	31068	25924	26558
1503	0	26015	32043	39800	35272
1504	0	39663	42526	40043	41152
1505	0	34501	26069	33829	25438
1506	0	25748	38585	38739	32017
1507	0	27906	30758	44918	44759
1508	0	28532	31564	37335	26536
1509	0	26866	33420	37644	28446
1510	0	26353	40154	26020	26512
1511	0	25188	29718	41212	37286
1512	0	28092	26806	27283	41082
1513	0	28033	36539	25365	33545
1514	0	36291	41929	31627	31113
1515	0	44854	31075	31506	26301
1516	0	33832	27712	34506	44349
1517	0	25583	32415	26007	36652
1518	0	37606	26435	43243	42852
1519	0	40614	34526	35040	34689
1520	0	28578	36332	44575	38608
1521	0	41021	25423	29600	28790
1522	0	39764	28617	25451	25177
1523	0	41957	39548	32723	40201
1524	0	31276	31485	29181	31286
1525	0	35792	34657	32440	39198
1526	0	29013	39723	40243	40768
1527	0	26916	26106	34305	36002
1528	0	28736	40828	27345	26745
1529	0	38590	28862	34235	28761
1530	0	37406	30826	42515	39613
1531	0	41144	30992	27329	37826
1532	0	29732	29966	31594	31612
1533	0	35161	33154	44300	31730
1534	0	35058	31039	42809	44518
1535	0	31625	29693	41362	25926
1536	0	25846	30859	25827	28118
1537	0	32786	27904	32778	33251
1538	0	32240	33820	25229	42407
1539	0	28035	27418	34282	42521
1540	0	37206	31641	26942	35292
1541	0	43648	39716	35992	32587
1542	0	39019	39071	29912	32954
1543	0	31834	39297	33969	41322
1544	0	40651	39697	27597	26998
1545	0	32724	26739	31497	28838
1546	0	38803	37205	40495	28001
1547	0	39997	29278	40708	27100
1548	0	39446	27256	35053	42737
1549	0	38143	25465	28194	39441
1550	0	26093	33190	44647	29038
1551	0	33166	41492	38193	41506
1552	0	40848	32362	31008	27520
1553	0	40911	26334	32463	29455
1554	0	27201	36387	43279	30173
1555	0	38688	37969	30319	39025
1556	0	34046	38483	30742	36849
1557	0	33248	26258	35016	25560
1558	0	42993	44215	40306	33850
1559	0	38499	33515	37090	34588
1560	0	25192	34291	42071	32481
1561	0	38068	25262	31632	25606
1562	0	29103	39850	41770	44968
1563	0	30261	28757	28972	43835
1564	0	29225	44344	38899	33666
1565	0	41468	33048	29572	34622
1566	0	27702	29292	43635	39712
1567	0	30968	35052	29268	33000
1568	0	36958	25060	37731	40956
1569	0	39354	33259	26231	35303
1570	0	42708	27706	42138	31570
1571	0	42846	37326	28817	44132
1572	0	43087	31610	26188	25482
1573	0	32045	34281	34899	38408
1574	0	29860	33681	38282	29887
1575	0	36901	34749	43112	28858
1576	0	27581	31377	39848	40008
1577	0	39473	39606	34533	40840
1578	0	39945	37428	34991	33816
1579	0	42928	42202	33012	43392
1580	0	32877	35611	36757	35603
1581	0	44227	33197	28503	36474
1582	0	38364	42790	28367	27281
1583	0	43755	37156	36683	27897
1584	0	39981	39900	29690	38643
1585	0	36519	37651	35624	29124
1586	0	29380	30958	39151	44696
1587	0	40156	41151	33501	28679
1588	0	42997	38706	44904	44381
1589	0	44742	25113	36376	32773
1590	0	37741	31890	36399	33702
1591	0	36887	37368	26656	29725
1592	0	42769	38431	44580	28297
1593	0	25414	30200	31071	26977
1594	0	26151	36214	30590	28794
1595	0	35274	37397	41083	27523
1596	0	26783	38521	33667	41315
1597	0	33551	35924	30924	29772
1598	0	38927	44130	44284	44026
1599	0	40555	33419	44222	31564
1600	0	32091	26598	44049	40144
1601	0	32208	26044	31250	26379
1602	0	35922	31005	39071	30642
1603	0	37691	35523	28743	41822
1604	0	43431	39369	41129	25717
1605	0	43787	38451	42798	35442
1606	0	38186	41711	34457	27929
1607	0	29738	36136	26054	41346
1608	0	42107	38553	38354	25710
1609	0	42370	28958	37451	44673
1610	0	28323	30846	34817	25310
1611	0	34064	44062	30429	33438
1612	0	35235	28364	30344	38522
1613	0	33787	33251	30687	32982
1614	0	27664	28513	37621	30321
1615	0	31498	26620	33897	34806
1616	0	30583	41867	27288	36452
1617	0	27730	28247	38151	37717
1618	0	38049	31720	28181	33079
1619	0	34045	42833	25008	40713
1620	0	35871	27986	30766	35894
1621	0	42589	32480	37189	29374
1622	0	38582	41831	31015	38018
1623	0	37730	30758	27866	29653
1624	0	38801	28971	39849	42189
1625	0	32221	35198	32259	40445
1626	0	30237	41791	44424	33455
1627	0	38503	38458	34870	26066
1628	0	36641	41242	34386	35420
1629	0	39287	40248	42905	32535
1630	0	25349	41940	37738	42278
1631	0	25030	41826	37684	25163
1632	0	36791	30275	37849	40325
1633	0	25682	25846	43955	30074
1634	0	30116	29787	33440	37387
1635	0	34830	27366	26872	31227
1636	0	38959	37308	32727	36521
1637	0	29892	29115	33039	29204
1638	0	26204	35682	28045	35831
1639	0	36991	25339	41889	35779
1640	0	28460	26474	27538	28585
1641	0	29650	28265	42976	26678
1642	0	31211	27148	42343	28799
1643	0	30546	28456	43048	33189
1644	0	25681	31008	35391	44941
1645	0	37641	30961	38884	42874
1646	0	32717	38615	35971	44116
1647	0	32304	35808	32142	31242
1648	0	26246	25862	42492	35283
1649	0	44432	25583	27944	29540
1650	0	44513	40978	36010	27368
1651	0	41551	37369	42951	26991
1652	0	41664	42602	31397	33637
1653	0	36489	26298	38480	44575
1654	0	40310	41363	28088	30139
1655	0	41278	44569	38902	33825
1656	0	29134	31351	38716	27389
1657	0	40759	41647	38382	42078
1658	0	34648	31500	44884	35642
1659	0	36427	29902	44769	44209
1660	0	44854	38153	30533	38020
1661	0	26283	27604	36110	32058
1662	0	29547	40797	32012	35041
1663	0	41829	35581	28898	27616
1664	0	38451	37392	28025	29515
1665	0	43601	35609	41588	43844
1666	0	43699	29652	43638	37544
1667	0	29718	33435	27112	33754
1668	0	43926	31000	38062	30977
1669	0	35971	25776	31986	44696
1670	0	43962	33265	33806	33148
1671	0	42965	28923	42116	29280
1672	0	36705	31665	27373	36081
1673	0	30841	41209	28908	37530
1674	0	37306	40826	38592	29210
1675	0	35218	31375	37548	30201
1676	0	43168	26370	32449	29423
1677	0	31439	33638	27714	39628
1678	0	42600	27349	31173	44231
1679	0	29353	25593	41673	29168
1680	0	33458	41028	38012	31699
1681	0	34429	33431	28959	34366
1682	0	41163	26128	28448	32926
1683	0	35057	35497	33787	38011
1684	0	33894	27551	39019	33899
1685	0	43245	26876	36267	34984
1686	0	28669	25889	38967	34999
1687	0	33585	29002	27627	31152
1688	0	31195	35396	32185	31966
1689	0	43046	26018	41289	42189
1690	0	26010	35598	43095	26184
1691	0	44245	32328	38103	37302
1692	0	37009	28484	29741	37105
1693	0	29706	30960	34529	34683
1694	0	43100	34973	27325	28406
1695	0	28383	31807	43069	28668
1696	0	33088	37897	30491	29309
1697	0	44513	44017	37742	27462
1698	0	26328	26154	37227	44191
1699	0	42509	43766	31741	42881
1700	0	31857	25661	42997	38414
1701	0	28716	39109	33040	35659
1702	0	27216	27143	34765	27882
1703	0	28992	43409	42303	27278
1704	0	27940	41192	28691	31789
1705	0	41321	26817	29374	40409
1706	0	32939	29513	27483	36108
1707	0	34412	42016	32844	42235
1708	0	27554	33422	31659	28530
1709	0	43389	27330	35339	30443
1710	0	26953	28681	42453	25827
1711	0	37865	28539	34944	35012
1712	0	41256	39740	32397	31607
1713	0	35912	38966	35750	43691
1714	0	44301	38549	39192	27284
1715	0	40450	36236	43929	29614
1716	0	27489	32429	40779	32309
1717	0	40347	27232	33033	26605
1718	0	38517	28244	31764	40830
1719	0	38503	29893	25215	39054
1720	0	31102	33045	28797	38864
1721	0	34672	25648	44715	39809
1722	0	34682	41314	28047	40828
1723	0	38062	26281	30970	42631
1724	0	41817	27342	28395	44533
1725	0	36896	32901	35862	29541
1726	0	26928	43232	27056	34200
1727	0	39832	31841	35924	31585
1728	0	40111	38500	29029	33296
1729	0	37468	29273	28415	29605
1730	0	43391	43219	35336	28831
1731	0	42159	44444	28801	36912
1732	0	31023	40861	33972	35052
1733	0	31880	34548	42764	36509
1734	0	42028	38313	34932	42833
1735	0	40442	26798	35558	40431
1736	0	33777	30394	32907	29880
1737	0	37439	28608	25056	27320
1738	0	28364	31782	37517	34046
1739	0	40320	32722	33755	44467
1740	0	38197	42577	32271	43781
1741	0	31790	42930	38788	34419
1742	0	43646	42752	35108	43255
1743	0	33332	38579	26832	39805
1744	0	31347	41169	36768	40785
1745	0	37311	28478	32927	29078
1746	0	38905	28167	25057	26521
1747	0	34313	43741	35874	33114
1748	0	42614	26629	40674	44508
1749	0	42620	26571	41822	40946
1750	0	26479	43790	40015	38163
1751	0	25254	25847	35445	43301
1752	0	39015	37557	27134	38911
1753	0	25739	25596	41928	31813
1754	0	39499	31675	26063	44842
1755	0	32056	41944	32713	31969
1756	0	33468	42829	35189	44880
1757	0	25733	43014	30080	32013
1758	0	32799	34917	34117	28303
1759	0	29121	44954	43861	40851
1760	0	31347	33361	43728	38219
1761	0	25263	32974	26906	38062
1762	0	44549	25948	27363	25397
1763	0	44341	27573	42745	42030
1764	0	31845	25364	41873	43160
1765	0	34152	35785	44026	32343
1766	0	43249	28496	41743	36095
1767	0	30697	33198	30182	35324
1768	0	40532	25736	43766	35317
1769	0	28380	40963	35704	42358
1770	0	25526	41231	44615	28580
1771	0	31931	26588	36563	35709
1772	0	32897	44601	42538	36607
1773	0	35133	28741	40875	37611
1774	0	42210	32904	38996	26599
1775	0	31914	39364	27445	39684
1776	0	40947	26638	44204	36865
1777	0	28907	44718	37596	37408
1778	0	32498	31038	26901	39586
1779	0	29586	32006	33662	36112
1780	0	32992	26193	40674	25619
1781	0	38693	37358	27056	43635
1782	0	41865	34724	33817	43207
1783	0	33339	26723	26828	41722
1784	0	32735	25281	43290	28711
1785	0	43629	28921	34154	40122
1786	0	31683	34207	37990	25096
1787	0	44679	31567	43924	37011
1788	0	38081	38269	37192	38333
1789	0	30709	25795	36612	43211
1790	0	44347	25185	44644	40998
1791	0	30664	38016	36596	40630
1792	0	30588	43190	40864	41763
1793	0	27314	41715	33382	31330
1794	0	25364	43255	29761	42156
1795	0	37116	34619	25826	36508
1796	0	30222	43896	41602	31736
1797	0	43365	36939	26367	26884
1798	0	44947	43087	36216	37249
1799	0	27777	37639	28615	35728
1800	0	34182	27158	42458	38821
1801	0	36027	38686	37434	32875
1802	0	26041	31262	26471	42355
1803	0	26734	26483	25486	41967
1804	0	30472	39726	32208	42411
1805	0	39566	43622	41492	41931
1806	0	34250	30885	29174	32456
1807	0	41983	26388	34877	37459
1808	0	38842	29727	28796	35492
1809	0	36026	31905	30522	41506
1810	0	37704	44214	34980	29560
1811	0	33969	28620	44867	43350
1812	0	25304	29133	42138	37721
1813	0	30942	41007	27303	40068
1814	0	42519	35594	26071	44763
1815	0	40416	36140	44598	44509
1816	0	34936	43929	37314	37793
1817	0	38196	28477	39906	33670
1818	0	35705	26211	44439	36206
1819	0	27213	32719	34723	44967
1820	0	36650	34910	28557	33290
1821	0	38909	28410	31583	31177
1822	0	26647	36624	40778	43922
1823	0	41299	26022	30780	29513
1824	0	36001	44972	31906	44581
1825	0	26720	39218	44414	43692
1826	0	29672	41634	37999	35446
1827	0	27889	27567	31309	39947
1828	0	43507	26850	43379	43921
1829	0	25651	40971	30599	37661
1830	0	26661	39284	44971	36300
1831	0	35375	43692	38569	33400
1832	0	32800	28041	37912	36209
1833	0	43616	31486	42377	43822
1834	0	39629	37722	34174	29008
1835	0	43695	27602	25895	35849
1836	0	43529	37593	30992	39367
1837	0	36341	26758	28260	40684
1838	0	34016	36963	25835	34728
1839	0	31469	35594	41044	29812
1840	0	30842	37933	35866	26322
1841	0	35228	34689	25357	32131
1842	0	32354	31506	27494	36622
1843	0	41138	36546	33473	43373
1844	0	29067	36866	37378	42948
1845	0	33632	44665	26695	41259
1846	0	43910	26174	35985	42633
1847	0	42010	43688	25343	27616
1848	0	32935	38097	32714	37577
1849	0	29136	44381	27259	27289
1850	0	27930	25330	25419	43964
1851	0	32263	33984	28947	34836
1852	0	27126	42730	41650	43185
1853	0	31804	36987	36839	38956
1854	0	39725	40283	32097	26030
1855	0	34922	25040	39883	33408
1856	0	32289	42761	28645	34259
1857	0	38602	29428	35178	43955
1858	0	31769	35083	32123	25268
1859	0	37146	32725	44535	39670
1860	0	37204	25322	40878	39694
1861	0	26316	41908	39308	44957
1862	0	32515	44384	27720	38710
1863	0	36917	25983	27799	39744
1864	0	30073	36083	31141	34826
1865	0	38865	30698	41326	33161
1866	0	38452	27730	42856	26735
1867	0	26041	44695	26918	25135
1868	0	26232	28273	43757	39838
1869	0	28009	43733	35529	33281
1870	0	26338	27026	38608	35388
1871	0	30619	34369	41409	38302
1872	0	37597	27673	41569	33889
1873	0	41373	40013	39434	38412
1874	0	40713	35040	33449	41981
1875	0	31498	42099	35003	40675
1876	0	28619	40966	43427	43814
1877	0	35533	44595	35799	38508
1878	0	28116	30563	40364	31027
1879	0	40037	26477	40049	44763
1880	0	36376	26718	28484	41732
1881	0	26701	37201	36224	39152
1882	0	39845	31860	29585	25542
1883	0	37102	29827	34904	39168
1884	0	39979	35280	31224	32442
1885	0	43862	38415	39444	25347
1886	0	33380	29185	36103	34217
1887	0	39823	40184	34751	26031
1888	0	25282	33549	40939	41990
1889	0	38743	36326	31682	33460
1890	0	38985	29206	27978	37670
1891	0	27766	29023	29848	26573
1892	0	42823	43976	29608	38393
1893	0	39483	44915	34323	28717
1894	0	33423	35931	40613	44919
1895	0	41227	33741	41967	35172
1896	0	40556	32258	27758	35259
1897	0	26317	42987	41190	39148
1898	0	44847	38304	29029	38770
1899	0	31459	41371	34570	37688
1900	0	41150	41577	36752	32328
1901	0	35877	41784	40738	38615
1902	0	35383	26892	31040	29507
1903	0	36599	39526	30205	35040
1904	0	43664	40630	38965	38213
1905	0	44715	27057	29880	40081
1906	0	41209	27466	35501	35735
1907	0	34650	26717	39514	33522
1908	0	32074	34939	36522	38688
1909	0	28734	40118	34280	32974
1910	0	34158	28082	44989	37257
1911	0	38568	32891	28272	39609
1912	0	33928	40334	44707	43575
1913	0	32524	35606	30458	35574
1914	0	42681	39853	30483	35107
1915	0	43843	36758	34469	32065
1916	0	39480	31671	44191	41341
1917	0	36686	44419	35234	27051
1918	0	38664	37705	28242	34992
1919	0	32654	40958	36877	40371
1920	0	37740	33835	32191	32885
1921	0	33011	39063	37725	39635
1922	0	27506	43943	31595	27285
1923	0	27382	30900	39936	30636
1924	0	42701	31069	42056	36923
1925	0	29060	38840	26921	33069
1926	0	35271	30255	33673	31493
1927	0	32488	31594	38826	30583
1928	0	31714	35035	41767	44950
1929	0	34949	32254	25691	38047
1930	0	39900	37639	26748	43847
1931	0	38513	39340	32758	44012
1932	0	38615	27331	34886	26168
1933	0	27903	44934	33950	39929
1934	0	33770	27445	28244	32256
1935	0	42339	32528	28091	40498
1936	0	35060	41576	31250	28781
1937	0	37137	41068	28509	30641
1938	0	30152	34634	36843	42600
1939	0	26183	41951	41422	27071
1940	0	44679	28955	25020	37121
1941	0	36294	38778	25913	36031
1942	0	32900	28070	41999	31493
1943	0	31340	39626	38225	25819
1944	0	38133	33427	28569	35292
1945	0	31815	28104	44201	41316
1946	0	34775	25779	35975	27359
1947	0	26104	35483	43178	40417
1948	0	31652	26356	33840	44003
1949	0	32782	40991	39086	27310
1950	0	43069	37117	26440	27394
1951	0	34346	33790	31884	42131
1952	0	42733	39439	40527	35124
1953	0	35435	41196	41413	32706
1954	0	39890	40386	29595	37432
1955	0	41176	29480	44850	26386
1956	0	34719	25055	32822	28852
1957	0	31052	33537	30286	40960
1958	0	30838	44309	40936	35809
1959	0	42841	39968	31261	28880
1960	0	35792	43212	39395	37102
1961	0	40593	36855	35581	41753
1962	0	28528	27556	30402	32685
1963	0	39528	34877	43662	25737
1964	0	27985	37375	29794	33252
1965	0	28333	33392	31065	30745
1966	0	40503	28622	33182	29192
1967	0	39554	32310	29981	27243
1968	0	32180	31907	33356	28070
1969	0	39175	33943	36840	40260
1970	0	30828	43546	25958	43839
1971	0	29727	33024	29855	30545
1972	0	32566	35296	41443	29668
1973	0	39871	30790	41432	40368
1974	0	34224	27407	28930	35846
1975	0	34432	44204	31242	28561
1976	0	43888	40994	39564	36295
1977	0	38591	44039	43529	42434
1978	0	30396	37203	36694	40810
1979	0	29818	43570	38463	34842
1980	0	42598	29659	38167	43728
1981	0	33902	44085	43981	39506
1982	0	32704	39473	34289	36868
1983	0	28174	29414	33934	29106
1984	0	39255	32106	37683	29403
1985	0	35249	29007	28365	39786
1986	0	33323	44550	25980	42254
1987	0	34583	26419	26692	28468
1988	0	35422	29173	25551	30425
1989	0	42067	32329	33469	28419
1990	0	36082	28470	43701	39257
1991	0	25792	36659	28219	39365
1992	0	32113	34231	36589	29207
1993	0	39341	38583	37992	41484
1994	0	35843	41704	35271	35450
1995	0	29970	31574	32120	43916
1996	0	41252	26023	40009	33408
1997	0	26731	36548	27822	27264
1998	0	42853	36954	37477	42661
1999	0	38873	33999	27572	36625
2000	0	33224	40086	41242	41285
2001	0	43190	38459	27927	42468
2002	0	31167	41727	27340	38123
2003	0	35286	29813	28698	44890
2004	0	34897	41480	30883	39218
2005	0	27312	28385	36356	29877
2006	0	35736	30192	35585	33558
2007	0	29322	26494	38699	30156
2008	0	40584	34127	41942	31636
2009	0	38774	44722	43982	32399
2010	0	39170	28133	28500	43210
2011	0	37184	33141	41002	36334
2012	0	30257	26758	31305	25544
2013	0	29460	40586	41929	35449
2014	0	35945	38163	40513	36424
2015	0	31988	37520	34587	26711
2016	0	32378	44542	35971	40816
2017	0	41137	40800	34125	35396
2018	0	36044	26435	25197	39221
2019	0	42062	39638	37888	42611
2020	0	30741	37604	40764	35956
2021	0	25997	26190	38560	34794
2022	0	28991	37495	32783	35966
2023	0	31978	26831	30664	36803
2024	0	36071	30766	26799	37912
2025	0	26491	26042	28532	43111
2026	0	35754	41276	35017	35309
2027	0	42352	39100	35852	40365
2028	0	39691	37894	31758	42714
2029	0	28933	33545	26711	37046
2030	0	43179	29027	38891	27407
2031	0	44874	26551	44488	38823
2032	0	43821	39505	25768	36842
2033	0	31610	33650	30075	44973
2034	0	31281	29740	32923	30095
2035	0	44380	26290	43717	34128
2036	0	43284	36173	37037	34893
2037	0	39706	28184	38513	39354
2038	0	39410	40532	36884	29584
2039	0	29486	28806	25466	37061
2040	0	36374	28341	26430	43179
2041	0	36924	32946	41548	31262
2042	0	39989	28998	41747	33621
2043	0	43414	43575	26823	30062
2044	0	39004	43466	28245	41489
2045	0	32683	41688	27837	29216
2046	0	37628	27520	40627	32732
2047	0	42662	39734	34752	39305
2048	0	29341	44310	42693	38248
2049	0	41580	30120	44194	42823
2050	0	41221	32654	29554	39719
2051	0	40522	30908	34331	32545
2052	0	37641	37155	43817	30282
2053	0	41004	25287	32685	33810
2054	0	39411	26506	34264	37279
2055	0	40546	38492	41036	38734
2056	0	42338	34580	31388	28418
2057	0	39326	37958	44920	36950
2058	0	33705	28353	28783	41510
2059	0	43146	27215	37317	35493
2060	0	33192	37167	43663	44722
2061	0	42566	27993	31940	29462
2062	0	40719	29240	41040	33287
2063	0	26497	39142	25413	30605
2064	0	37077	34171	25661	26255
2065	0	43996	39528	34420	26782
2066	0	28929	31698	35823	44640
2067	0	26778	29502	32677	39043
2068	0	37201	40820	33524	41290
2069	0	30330	25595	32823	39979
2070	0	31813	25787	27198	30645
2071	0	44095	42301	39396	33584
2072	0	34613	26080	28287	39340
2073	0	35244	25169	43310	32686
2074	0	38786	41420	38290	26225
2075	0	41483	36834	40549	33951
2076	0	37455	26199	43121	44965
2077	0	43040	34401	37334	40137
2078	0	26129	32224	25585	34332
2079	0	29011	41331	32658	44145
2080	0	35924	29781	27803	42449
2081	0	37840	26231	35895	29272
2082	0	43817	32968	35850	28713
2083	0	41779	26057	25415	33079
2084	0	31267	38017	37122	31960
2085	0	42087	39757	25204	39986
2086	0	35838	30637	41906	43114
2087	0	28751	42422	28459	38254
2088	0	27306	26616	42184	42944
2089	0	30730	41327	37421	40393
2090	0	39388	27154	44067	39195
2091	0	41966	38115	43873	31118
2092	0	36180	26233	44273	30697
2093	0	29464	34794	44276	32907
2094	0	37503	44546	32758	42478
2095	0	37229	29214	40230	44001
2096	0	38687	30602	33933	34160
2097	0	39650	37097	44550	30686
2098	0	26717	26579	35523	30152
2099	0	38820	41951	33859	43232
2100	0	39312	27533	32494	40840
2101	0	29279	35843	34411	39463
2102	0	38406	27195	35781	42556
2103	0	38085	39966	37591	30470
2104	0	26961	29037	26780	27507
2105	0	43270	32379	37287	42311
2106	0	42815	40504	30447	44535
2107	0	30230	35969	28380	37510
2108	0	40836	25979	40191	26238
2109	0	38497	36025	36233	26029
2110	0	43395	25847	36810	41606
2111	0	29841	30648	33482	40158
2112	0	37232	37480	38547	39180
2113	0	42703	36600	30447	29536
2114	0	33323	27203	31972	43215
2115	0	30103	36585	37648	32600
2116	0	38304	43700	30134	40702
2117	0	26393	29602	35894	28525
2118	0	29678	41805	28204	35957
2119	0	42136	29806	40623	30073
2120	0	25831	41372	28236	42026
2121	0	39153	28732	29154	38781
2122	0	40627	39339	29634	35793
2123	0	40810	42192	36042	29863
2124	0	36722	41097	30030	41135
2125	0	31488	40943	41603	40357
2126	0	43048	38125	44025	34219
2127	0	25967	34736	25219	44620
2128	0	36014	27900	41683	34150
2129	0	39862	42986	26750	28037
2130	0	36472	38596	29291	28804
2131	0	31539	31430	26662	43294
2132	0	35974	26447	31482	38423
2133	0	30036	25515	36163	43420
2134	0	40186	32859	41413	44006
2135	0	28859	30946	44667	36011
2136	0	30915	28679	29231	43603
2137	0	30510	32775	42636	42846
2138	0	34433	35579	43376	34869
2139	0	35347	41455	42262	34912
2140	0	44063	44282	42260	44629
2141	0	25216	32498	38607	39107
2142	0	30434	41261	36089	25155
2143	0	30643	31399	30885	31087
2144	0	42398	42356	42198	32424
2145	0	32331	39239	35422	33211
2146	0	25251	44787	30741	31292
2147	0	26867	32518	41287	43547
2148	0	42510	33150	30726	42683
2149	0	31876	37201	41184	27076
2150	0	27615	38811	28016	26494
2151	0	35937	42192	33373	37052
2152	0	32092	30823	29535	27692
2153	0	35744	37291	40176	30511
2154	0	40641	38119	28958	44409
2155	0	35722	36106	42201	32965
2156	0	42561	42369	28438	37553
2157	0	25937	30159	37440	25651
2158	0	29729	41465	31078	33579
2159	0	29829	29820	34947	41856
2160	0	41919	31363	32509	43220
2161	0	32645	25074	31128	38506
2162	0	27896	34493	43367	30756
2163	0	33729	25034	31186	26555
2164	0	38146	36639	31084	31756
2165	0	31411	40424	33254	25439
2166	0	34942	26444	35228	27586
2167	0	39920	27717	32195	36834
2168	0	31770	38851	37655	40658
2169	0	27244	30735	40973	33578
2170	0	34452	34575	35628	39894
2171	0	32854	26921	43867	29690
2172	0	42013	28973	25555	34772
2173	0	28696	33295	39611	38692
2174	0	25779	28115	25729	44229
2175	0	41806	27419	30273	34836
2176	0	43868	44690	30450	37004
2177	0	41283	42845	43280	36328
2178	0	33583	30216	26517	36803
2179	0	35471	36314	30574	36463
2180	0	32050	25780	26648	37227
2181	0	36475	44611	33356	37265
2182	0	35858	28878	26231	40395
2183	0	39773	28142	43662	43012
2184	0	28401	38311	30114	41531
2185	0	42448	27906	40348	35190
2186	0	41723	33153	32407	26479
2187	0	42189	27350	31745	41273
2188	0	38994	30202	42807	36288
2189	0	39037	32464	33221	29529
2190	0	35491	33997	31505	33525
2191	0	38567	27078	35558	27582
2192	0	35432	44266	44277	31750
2193	0	27750	25674	37493	30024
2194	0	27327	43123	31987	44253
2195	0	32260	35448	26737	40092
2196	0	43595	42196	34844	27697
2197	0	25826	26000	37665	27344
2198	0	37493	31955	44928	30076
2199	0	35123	37611	28002	38531
2200	0	31184	36873	38289	39090
2201	0	37028	44796	44659	40096
2202	0	39679	29510	26784	26004
2203	0	26618	32584	30611	27590
2204	0	28040	36364	28203	26433
2205	0	25200	39018	34924	32682
2206	0	39942	30215	43520	44115
2207	0	43140	32006	41528	28418
2208	0	25124	27583	33293	28880
2209	0	25893	36525	35654	29589
2210	0	38637	25213	29567	30992
2211	0	34648	35254	33236	29118
2212	0	28382	35262	36618	32016
2213	0	39824	41230	33491	28825
2214	0	29029	33469	33165	40851
2215	0	38249	38482	39133	35596
2216	0	38479	44389	28961	39139
2217	0	38643	31829	25718	34118
2218	0	37239	38957	25885	28892
2219	0	26480	39404	29153	26605
2220	0	42216	34775	40522	39647
2221	0	30280	28655	26393	30741
2222	0	30097	27764	35505	31024
2223	0	43919	25174	32316	26292
2224	0	31375	32940	34951	26322
2225	0	26066	36361	27236	32598
2226	0	40468	44292	31753	33042
2227	0	25625	39436	41795	30518
2228	0	31679	44598	44395	32021
2229	0	44921	25801	27578	28289
2230	0	36055	33604	26939	44085
2231	0	39280	42616	37479	40983
2232	0	36368	29289	40443	43054
2233	0	27583	39475	32721	37750
2234	0	37410	30452	28049	25405
2235	0	31462	28288	37312	44866
2236	0	28700	27250	42076	27957
2237	0	38245	36794	37655	36207
2238	0	34600	41682	35843	39858
2239	0	35869	38566	30102	41611
2240	0	29595	38868	34396	26170
2241	0	29472	25641	28945	34168
2242	0	29149	34905	29080	34024
2243	0	34800	42487	36134	40654
2244	0	31541	33246	29155	29964
2245	0	37526	42247	37583	37202
2246	0	42632	33130	29200	27253
2247	0	25634	36132	43345	26120
2248	0	43544	31503	36604	31807
2249	0	34658	29426	43382	33993
2250	0	39488	38574	31731	32920
2251	0	29232	35191	29968	30275
2252	0	33808	41959	43295	35896
2253	0	42309	42910	32168	37776
2254	0	31084	34888	35568	32036
2255	0	34131	33381	41842	29154
2256	0	43957	44144	34801	44870
2257	0	30567	39424	27880	41958
2258	0	42849	38129	37584	34746
2259	0	37045	37339	33596	41833
2260	0	26435	33655	43263	36118
2261	0	31146	44876	25089	27835
2262	0	39857	38806	42862	38528
2263	0	40492	44319	38995	35466
2264	0	33754	28832	40304	36721
2265	0	30326	31406	39204	35338
2266	0	33010	25476	37160	38859
2267	0	34350	30255	37417	36823
2268	0	40889	32173	26371	38941
2269	0	29727	37552	25613	40024
2270	0	27334	30174	44756	40444
2271	0	37376	31264	37357	44930
2272	0	29087	39025	38333	25354
2273	0	38150	40526	44272	34055
2274	0	32018	36033	27091	32915
2275	0	34118	40242	33176	42068
2276	0	38987	34226	41837	28003
2277	0	29423	38728	25190	41786
2278	0	44830	42997	39093	30201
2279	0	25111	31406	42390	35691
2280	0	30927	39667	30349	41643
2281	0	41654	39170	26544	27445
2282	0	32996	33868	44231	36132
2283	0	38526	26020	32163	27512
2284	0	28195	33048	43288	39384
2285	0	25989	33959	25258	44974
2286	0	26863	32173	27059	36084
2287	0	26250	25273	26216	41839
2288	0	44524	30402	37029	31903
2289	0	37403	43469	28112	32451
2290	0	39074	41060	35336	36466
2291	0	29455	35519	34441	26407
2292	0	32702	42694	31766	34951
2293	0	34652	26677	30253	25378
2294	0	28446	34068	26215	39418
2295	0	42198	40782	35467	39137
2296	0	37313	44149	28898	30197
2297	0	29791	44056	34059	29211
2298	0	43553	33052	25021	38267
2299	0	44543	34925	26505	32795
2300	0	27996	38649	40408	30700
2301	0	32427	27904	37577	25127
2302	0	26793	29974	40278	30724
2303	0	32057	42053	38800	26444
2304	0	33090	27895	29525	31554
2305	0	25132	34978	33229	35550
2306	0	41968	30118	29232	37306
2307	0	40114	40303	38730	39689
2308	0	30975	34246	37973	32370
2309	0	25357	43537	28458	38434
2310	0	37398	31564	36915	40387
2311	0	26866	40005	36580	30401
2312	0	26169	31754	36508	44652
2313	0	42929	37417	28741	25272
2314	0	40804	32895	28107	28279
2315	0	44617	44006	28556	27968
2316	0	39215	42950	41601	36800
2317	0	41063	42374	29271	26959
2318	0	36075	33428	27115	42566
2319	0	29112	33495	30027	33006
2320	0	32957	44896	38162	43302
2321	0	42856	36524	40610	30245
2322	0	35541	28074	27209	39881
2323	0	43543	37756	36467	30310
2324	0	35890	33475	43575	35383
2325	0	35408	27028	38700	27139
2326	0	32585	37710	44123	44134
2327	0	43719	28827	31330	41637
2328	0	35008	36389	37651	28434
2329	0	37525	44308	36216	36797
2330	0	33232	29337	39827	35871
2331	0	36451	32813	32840	30110
2332	0	43364	39495	37520	42785
2333	0	29582	41531	32359	38115
2334	0	31992	36221	44721	38811
2335	0	29125	30879	42628	38496
2336	0	37708	33545	32834	34161
2337	0	35158	43233	29296	30156
2338	0	35710	25748	27357	40474
2339	0	32021	36976	36992	41401
2340	0	31675	43845	36045	39874
2341	0	43619	39601	41299	40681
2342	0	38659	26603	26416	34762
2343	0	34998	25728	44248	42216
2344	0	32946	34764	28825	34028
2345	0	39535	32511	35996	38853
2346	0	40066	36706	31036	30173
2347	0	37952	35919	41750	40920
2348	0	41171	43150	43811	42448
2349	0	41857	25838	31181	41776
2350	0	40217	26156	32752	44113
2351	0	44569	33315	39254	32238
2352	0	35925	30185	32429	44836
2353	0	40105	29370	32976	29189
2354	0	26534	35928	33879	39640
2355	0	44419	26492	44382	34811
2356	0	39352	26804	41041	44324
2357	0	32052	41886	34524	34729
2358	0	37269	26692	29761	28151
2359	0	41569	41216	41528	25953
2360	0	37360	29938	31376	28248
2361	0	38708	27069	39369	25429
2362	0	30273	37069	30316	37466
2363	0	36695	44127	40815	42550
2364	0	40198	34195	29838	41270
2365	0	37697	43300	33538	42132
2366	0	44975	37678	29139	44577
2367	0	29442	42027	29934	41392
2368	0	32247	40057	44909	28536
2369	0	33377	26193	25516	33145
2370	0	32593	34164	30893	26708
2371	0	35420	36076	30683	43088
2372	0	32252	29041	43819	29440
2373	0	44946	41325	32850	35222
2374	0	37585	33595	42833	25705
2375	0	26551	42415	43716	25288
2376	0	34578	44604	32300	25273
2377	0	40948	38571	30802	40484
2378	0	41385	37763	32655	43826
2379	0	30453	26110	26726	27103
2380	0	26845	33741	26374	35890
2381	0	44227	44414	43054	38708
2382	0	44666	25563	36187	27670
2383	0	34438	44295	25653	42319
2384	0	32126	43852	31802	33355
2385	0	31825	42671	28634	26615
2386	0	37640	35153	25842	40926
2387	0	43828	38875	37660	31979
2388	0	27368	36360	34078	34069
2389	0	27348	35199	40655	31869
2390	0	36058	36800	34447	42852
2391	0	38509	38001	29357	26437
2392	0	29684	28443	43427	37812
2393	0	43429	30353	42016	36501
2394	0	33915	29767	43498	44892
2395	0	27060	29080	31271	40167
2396	0	39809	40100	39613	36159
2397	0	44374	25379	40725	26171
2398	0	36371	25722	43910	41550
2399	0	39926	31306	39027	34407
2400	0	40917	33636	40968	31240
2401	0	26245	39904	43030	28282
2402	0	37008	36344	33675	31138
2403	0	32871	30326	41384	25120
2404	0	25206	40902	41327	33928
2405	0	34493	35632	27836	38990
2406	0	34214	41713	27200	36844
2407	0	30446	37367	44014	34321
2408	0	26366	37625	40155	32065
2409	0	27693	43980	39471	36158
2410	0	30615	38840	27240	26019
2411	0	29303	26023	42529	35415
2412	0	41961	37219	31031	30901
2413	0	38419	33008	44444	28809
2414	0	33876	43505	34476	39411
2415	0	40560	44278	31975	37158
2416	0	25147	36023	29628	33317
2417	0	34295	26289	44402	43180
2418	0	39681	35666	35679	43808
2419	0	39341	30306	36064	31610
2420	0	43333	39043	28294	27439
2421	0	25312	27938	35759	41254
2422	0	37608	30540	27142	28782
2423	0	34348	30573	31027	39694
2424	0	34066	31023	37652	37651
2425	0	30504	37386	25216	29258
2426	0	35766	37295	25553	28310
2427	0	42643	26734	36894	28479
2428	0	42602	28443	31360	43554
2429	0	38360	30207	29049	36469
2430	0	32766	36006	36607	25909
2431	0	36424	44224	44210	25051
2432	0	43964	42668	40101	25985
2433	0	36583	26681	26936	27496
2434	0	33660	43743	38547	27963
2435	0	35780	33450	38993	43947
2436	0	36728	40238	34492	30556
2437	0	27120	37242	32645	41608
2438	0	35055	34455	36612	36407
2439	0	41895	28999	28002	27977
2440	0	41967	41298	35530	37040
2441	0	44950	44967	39352	28589
2442	0	38605	34451	42079	39145
2443	0	36981	35319	31375	30963
2444	0	30766	32542	39306	42906
2445	0	39271	38686	25781	25111
2446	0	35304	42996	37271	25766
2447	0	31322	38870	43489	32516
2448	0	44994	32355	36368	42528
2449	0	39910	39581	33693	36445
2450	0	36791	27019	44438	40053
2451	0	25199	26025	26700	30422
2452	0	32409	35254	40911	28077
2453	0	37918	28135	28048	27351
2454	0	25194	30822	42509	38451
2455	0	25368	32381	28668	43120
2456	0	33204	32754	41365	42910
2457	0	25458	41042	39746	42881
2458	0	29529	37738	38285	40183
2459	0	42945	25548	44781	31168
2460	0	36021	26080	39070	32926
2461	0	44247	40627	25909	26945
2462	0	38680	25642	43744	33769
2463	0	42811	37302	38491	38157
2464	0	41880	39174	28406	26931
2465	0	43072	42577	33078	32884
2466	0	34508	32678	30484	39808
2467	0	33399	43035	34486	26533
2468	0	27006	35317	26703	36107
2469	0	29451	39549	29527	43959
2470	0	44222	37946	27549	25554
2471	0	41849	29424	44660	42955
2472	0	29924	31432	34390	30362
2473	0	44124	34695	30650	34299
2474	0	38646	44376	41378	41435
2475	0	31722	28269	36581	42922
2476	0	34859	40447	43735	28474
2477	0	33824	38973	36412	41192
2478	0	27351	38418	32124	25496
2479	0	36536	37951	27583	29287
2480	0	44393	38838	44100	39797
2481	0	27981	38500	27156	42702
2482	0	25512	33548	44551	39027
2483	0	30995	42639	44240	35974
2484	0	29421	36009	44438	39552
2485	0	40802	40042	37614	44783
2486	0	41938	44418	38505	41337
2487	0	34425	25215	26438	31345
2488	0	32469	30357	39369	30541
2489	0	34001	35800	28788	36138
2490	0	25452	36782	34665	33969
2491	0	39785	31377	39835	31584
2492	0	44351	37782	28745	26391
2493	0	41944	44690	41679	42541
2494	0	25699	36585	33052	26064
2495	0	39069	35877	29480	44681
2496	0	28018	34007	34336	37587
2497	0	28327	33741	42880	31466
2498	0	38464	43566	31451	37374
2499	0	40677	35638	31426	26621
2500	0	37822	31325	44857	28726
2501	0	33119	29284	32864	39234
2502	0	39615	31936	34307	35150
2503	0	35741	32805	35477	25105
2504	0	44016	41962	28156	26996
2505	0	28474	32777	31666	41495
2506	0	28917	32236	33037	33344
2507	0	33770	38048	31916	26983
2508	0	34500	28767	26638	26285
2509	0	29033	31498	44679	26321
2510	0	28486	43539	25380	34489
2511	0	39932	36045	35638	43309
2512	0	33684	29643	35294	42146
2513	0	40297	40424	34642	34443
2514	0	36149	32164	42829	40265
2515	0	44051	28782	43799	41215
2516	0	44834	35924	32741	30395
2517	0	38683	30496	26267	39153
2518	0	33618	43816	30165	40109
2519	0	35671	36186	43191	31104
2520	0	30490	44570	40887	27654
2521	0	40354	31702	37209	44078
2522	0	43896	28868	27774	25390
2523	0	30218	30071	32581	42736
2524	0	32873	43544	29500	40241
2525	0	32637	26089	41616	35993
2526	0	40938	43395	27848	36909
2527	0	39254	30603	35826	37139
2528	0	29515	25464	32509	42275
2529	0	37916	42636	39070	29903
2530	0	32610	34160	40019	33787
2531	0	25272	25524	25271	41020
2532	0	30529	30072	43743	29401
2533	0	38545	41269	25167	35692
2534	0	33387	41229	34235	32892
2535	0	31605	44092	31815	25434
2536	0	29712	36365	43993	35368
2537	0	29160	35776	32024	38065
2538	0	38293	36959	44253	29402
2539	0	29588	26012	29746	40140
2540	0	32477	33168	42394	42107
2541	0	31103	33053	38445	41622
2542	0	40816	40259	31277	38637
2543	0	43382	43134	40470	28772
2544	0	28803	29335	40235	41885
2545	0	42917	42555	34050	38695
2546	0	43453	37200	32058	35407
2547	0	33322	28522	30371	42400
2548	0	42901	28411	40475	36951
2549	0	32442	36172	35929	29561
2550	0	29554	31167	27281	25968
2551	0	37403	29410	28341	30258
2552	0	34766	28257	44461	28378
2553	0	32676	42045	28577	40968
2554	0	35009	36288	26223	27789
2555	0	39523	39203	37534	35112
2556	0	35193	35643	30362	32258
2557	0	33859	40635	40840	27592
2558	0	38664	27644	31099	41149
2559	0	42128	36494	25656	38338
2560	0	29947	32786	32819	37224
2561	0	37707	31357	38876	25687
2562	0	40471	34113	41190	38504
2563	0	42659	25262	42704	27128
2564	0	33601	43001	28849	40579
2565	0	39377	26469	27865	29041
2566	0	29525	29772	31299	40884
2567	0	30293	29807	41033	37309
2568	0	37116	40124	34734	37800
2569	0	40578	38666	44116	38776
2570	0	34655	38813	40803	33798
2571	0	32652	34319	25706	31609
2572	0	28477	44067	28055	34581
2573	0	36826	38583	32261	33634
2574	0	31868	28649	26461	39962
2575	0	36932	35752	25770	32001
2576	0	26342	34965	37606	42494
2577	0	32358	34218	42620	34029
2578	0	30665	39473	28600	28674
2579	0	30933	38760	33929	25837
2580	0	36764	32135	37534	39232
2581	0	31226	43253	34728	35181
2582	0	26582	33337	44241	31793
2583	0	31976	36881	40118	28623
2584	0	34170	36904	27690	28212
2585	0	26112	29404	39505	38810
2586	0	33399	42533	35557	34947
2587	0	32825	29721	37411	26038
2588	0	26559	31149	39213	44910
2589	0	32570	26024	33413	31686
2590	0	44973	41405	42206	27381
2591	0	40452	30559	43669	41427
2592	0	39651	27668	27065	37091
2593	0	37509	34796	38270	26275
2594	0	40634	35891	33987	40107
2595	0	25417	38840	34202	25006
2596	0	40269	37869	30096	40191
2597	0	29611	36187	28867	42124
2598	0	37517	30651	42407	35316
2599	0	33717	27467	33617	25072
2600	0	34583	38841	41593	38892
2601	0	37681	43229	42732	26337
2602	0	29226	42664	28411	36481
2603	0	40386	41660	43793	44507
2604	0	42795	44638	44037	40833
2605	0	31071	41367	41967	37907
2606	0	42006	37285	38616	28378
2607	0	41111	37936	26734	33786
2608	0	27143	40060	41113	27718
2609	0	26658	30118	39189	38761
2610	0	33114	31583	34773	34228
2611	0	38314	41090	25937	39203
2612	0	28467	28065	25827	43531
2613	0	41652	29796	25060	35327
2614	0	37650	29183	35279	39350
2615	0	35955	32403	40729	42111
2616	0	43232	27404	37436	26095
2617	0	31250	37285	42968	29589
2618	0	33324	43793	42068	29052
2619	0	34716	39809	25038	36874
2620	0	43219	43744	32380	41113
2621	0	44849	31271	32506	26545
2622	0	35889	43165	33975	33116
2623	0	28912	34314	26116	29942
2624	0	31028	43598	38175	38850
2625	0	35331	39539	37256	36694
2626	0	34967	40930	31833	33715
2627	0	34816	31078	32037	31638
2628	0	30099	43893	44659	41698
2629	0	43508	42924	33407	32389
2630	0	38624	25334	35236	36760
2631	0	39246	26083	38642	40351
2632	0	30816	31470	42419	44180
2633	0	28542	30850	38597	27608
2634	0	43968	32262	31635	44467
2635	0	38650	34113	32719	33626
2636	0	31066	26587	36346	25160
2637	0	33902	32709	30756	44237
2638	0	29494	30006	34102	33687
2639	0	40444	35543	29944	44732
2640	0	38202	27602	33005	34590
2641	0	39979	30774	31314	36010
2642	0	40961	42685	41924	35197
2643	0	36283	40319	41939	37513
2644	0	38392	42007	34245	40252
2645	0	25672	44453	37468	29254
2646	0	29154	41640	25168	32957
2647	0	28914	37268	29208	31356
2648	0	29481	25870	42433	32467
2649	0	42010	39836	29963	28288
2650	0	29477	33855	32914	31729
2651	0	28804	26778	34324	37950
2652	0	37182	27653	25724	28750
2653	0	34234	30062	32893	25715
2654	0	41721	27717	37383	32779
2655	0	30062	28821	37204	33908
2656	0	29355	28309	32820	37332
2657	0	43567	28208	42560	36581
2658	0	41360	38319	30322	42912
2659	0	30624	30870	31415	26120
2660	0	43773	28399	44611	33339
2661	0	43150	33051	42497	41651
2662	0	40738	36091	33614	42308
2663	0	39098	29934	26883	40734
2664	0	34610	34081	36566	28975
2665	0	44722	40065	40825	28213
2666	0	28570	35177	42112	30963
2667	0	41702	30207	36690	39098
2668	0	44403	42192	31209	35830
2669	0	39443	29313	35505	35264
2670	0	26831	25535	29685	41490
2671	0	33821	31697	32231	41194
2672	0	36154	29750	30888	43780
2673	0	28948	35451	43197	44286
2674	0	31897	33440	31845	44453
2675	0	39554	28188	33258	29083
2676	0	35623	39121	31596	26526
2677	0	34004	41684	26008	25326
2678	0	27119	38209	35374	36203
2679	0	39714	40519	41697	27335
2680	0	40911	33290	34827	35011
2681	0	40462	28461	41523	32631
2682	0	43044	27409	37415	31928
2683	0	34653	26686	25751	27498
2684	0	34621	37156	39255	26884
2685	0	38351	36701	37896	39032
2686	0	38529	32566	33126	36572
2687	0	41644	40223	29564	33943
2688	0	43735	41991	38224	39391
2689	0	25011	38781	25667	25927
2690	0	44111	36314	30674	34711
2691	0	35014	26868	43823	36509
2692	0	26975	36882	33382	30186
2693	0	35945	44395	38890	35144
2694	0	26750	38569	40332	31445
2695	0	40717	44761	42846	32960
2696	0	27229	28620	41371	31899
2697	0	30000	33431	42728	42015
2698	0	38820	29047	36474	32826
2699	0	39084	44049	37669	35414
2700	0	44039	44761	38755	33202
2701	0	30360	26610	36654	42230
2702	0	39839	43807	43102	37285
2703	0	38651	30898	42576	44887
2704	0	35375	33424	25684	27953
2705	0	39347	27032	32922	43660
2706	0	30510	42075	26292	26410
2707	0	31786	28165	39546	34159
2708	0	29205	29163	30011	39817
2709	0	40877	25744	36231	37427
2710	0	37402	36841	39596	44722
2711	0	33158	37216	30455	29037
2712	0	30508	41754	35043	28069
2713	0	34516	33529	27695	25224
2714	0	30978	39015	42296	39657
2715	0	40283	44737	39848	29793
2716	0	34466	25732	43748	32829
2717	0	26519	43958	33352	44656
2718	0	27718	28639	44112	36685
2719	0	29875	39425	29520	42425
2720	0	33107	27054	33167	27279
2721	0	36358	35632	38871	43180
2722	0	41866	32178	31209	28895
2723	0	26829	38680	39739	44385
2724	0	43733	30735	39120	43546
2725	0	30583	39154	44710	44132
2726	0	29545	33186	27620	26305
2727	0	41889	44067	42370	42612
2728	0	28374	26380	35631	41440
2729	0	41893	41527	40067	36035
2730	0	29906	39226	41896	41988
2731	0	28182	28682	42695	29362
2732	0	31053	33768	37504	31257
2733	0	43437	39693	30812	42600
2734	0	32551	37985	29282	25975
2735	0	43999	34761	42928	34669
2736	0	32012	44669	44258	25884
2737	0	42013	33395	31967	29709
2738	0	44496	38726	30355	31472
2739	0	42585	35822	40347	26300
2740	0	26885	29009	41596	44490
2741	0	27976	35971	25912	28741
2742	0	28273	27928	39782	28088
2743	0	40109	34408	28081	35542
2744	0	26937	38201	28665	43556
2745	0	37357	39092	29672	39511
2746	0	36385	40452	31258	25566
2747	0	32515	36289	26923	30201
2748	0	25912	28864	39127	37271
2749	0	25143	33949	25337	32567
2750	0	38668	26394	29381	38886
2751	0	30507	36152	33479	44981
2752	0	32387	36975	41743	31059
2753	0	37461	37662	25218	37394
2754	0	25502	34123	36169	38696
2755	0	36901	25757	44162	27416
2756	0	38479	43203	30674	32716
2757	0	44684	26189	32483	42283
2758	0	28953	29078	43723	41486
2759	0	26517	28891	39784	31340
2760	0	40631	31911	39684	34068
2761	0	25855	43647	39044	26995
2762	0	29826	36483	42408	28819
2763	0	31342	31263	40107	39819
2764	0	37780	43851	32199	42497
2765	0	44929	40438	33874	43610
2766	0	29075	33957	33563	36467
2767	0	40705	28199	42719	28567
2768	0	31106	27462	38163	38419
2769	0	38212	36862	36397	28598
2770	0	41496	42477	30863	42333
2771	0	25973	43899	33344	36765
2772	0	41136	30832	29784	40172
2773	0	36346	42946	31183	39545
2774	0	42645	43444	38031	29640
2775	0	44383	40606	32510	34896
2776	0	44899	26132	33486	28281
2777	0	35373	27350	40960	26143
2778	0	39712	33271	34799	26214
2779	0	31120	32401	41892	42779
2780	0	29698	31449	43353	29763
2781	0	33494	28359	28298	34111
2782	0	27256	36672	40809	32383
2783	0	31130	39587	27278	35353
2784	0	33671	35539	28656	27793
2785	0	30021	30214	31703	31123
2786	0	37116	40886	29403	35331
2787	0	33951	27082	33360	40622
2788	0	38709	36908	37624	40521
2789	0	35308	28165	32019	25042
2790	0	26571	43827	27626	40085
2791	0	41243	29909	37263	39571
2792	0	26813	43101	34488	32434
2793	0	42713	42726	29326	43560
2794	0	29960	44222	28760	27072
2795	0	32627	29264	35768	29049
2796	0	32041	26962	39575	29919
2797	0	43669	29470	27118	40779
2798	0	43295	41713	41501	32124
2799	0	35019	42393	33344	41247
2800	0	40529	42610	26139	42600
2801	0	36327	40575	27461	38477
2802	0	37416	27877	40215	32502
2803	0	29721	26487	42071	28391
2804	0	30064	33041	27398	31435
2805	0	29258	32830	35096	37304
2806	0	30630	33881	40519	44224
2807	0	35239	32597	39388	29982
2808	0	29990	32015	38383	42033
2809	0	30600	34737	34138	33322
2810	0	44912	32070	37394	27303
2811	0	44760	35068	41289	29123
2812	0	31279	36814	33706	28885
2813	0	27769	44570	36563	38164
2814	0	33303	44814	25305	34720
2815	0	42212	39767	36998	34412
2816	0	42205	38874	42250	34787
2817	0	30473	38910	41440	44083
2818	0	30827	41267	26541	38020
2819	0	41164	31445	34155	37857
2820	0	34236	37485	41217	29140
2821	0	39867	35386	32308	28849
2822	0	43860	40894	29543	42373
2823	0	38442	35740	29039	30154
2824	0	37873	29359	40067	32522
2825	0	26272	25915	29233	42548
2826	0	44372	40706	35132	29303
2827	0	37601	34207	34159	33877
2828	0	40147	28882	44341	35546
2829	0	34176	30955	26082	32453
2830	0	31465	41261	44726	28117
2831	0	26219	27133	31915	38587
2832	0	42018	40281	27069	29253
2833	0	31362	29106	38379	41292
2834	0	37124	26757	33031	42296
2835	0	30172	36495	41775	36824
2836	0	37235	44218	38746	38630
2837	0	31691	30599	29755	36945
2838	0	41270	31466	41960	26243
2839	0	30872	27093	42353	34638
2840	0	32099	25964	42770	44525
2841	0	37589	36586	33975	34555
2842	0	27968	33863	40612	39060
2843	0	37984	40789	36724	42068
2844	0	34605	31072	38923	39514
2845	0	32952	34193	26078	35953
2846	0	37749	44824	31305	37030
2847	0	29676	33179	36121	44924
2848	0	40633	39135	36608	36298
2849	0	28887	32963	28396	44177
2850	0	40506	25563	36283	39242
2851	0	39840	35454	30884	43956
2852	0	34079	35035	27909	31506
2853	0	37783	32624	40272	36820
2854	0	27412	41318	29051	31213
2855	0	40223	27994	28276	38413
2856	0	27236	29046	34700	43641
2857	0	29419	36205	31379	31295
2858	0	42609	41464	28116	30070
2859	0	39255	30569	36092	43755
2860	0	35192	30991	29742	44496
2861	0	41518	43710	34219	40817
2862	0	31910	31351	44634	33515
2863	0	29429	34087	43261	34857
2864	0	32344	42805	30823	35512
2865	0	34336	29624	42896	31545
2866	0	38683	31796	29784	36284
2867	0	38909	36303	26094	32664
2868	0	43707	32154	25430	29557
2869	0	38143	36993	34597	32318
2870	0	36530	40661	27580	42856
2871	0	38002	27141	34965	35802
2872	0	38074	39103	40699	41153
2873	0	34664	29064	40811	34832
2874	0	42213	31370	34403	30839
2875	0	27528	32224	36250	41094
2876	0	28282	34826	37718	34745
2877	0	35707	30523	41282	39024
2878	0	29067	40105	42891	27240
2879	0	34303	36622	40191	35094
2880	0	42418	29263	38078	25125
2881	0	38785	30614	44592	39340
2882	0	37041	30364	25999	34525
2883	0	38848	25844	44121	42922
2884	0	40878	25694	30541	25102
2885	0	34610	28994	26556	29042
2886	0	34135	40654	42016	27589
2887	0	31867	42016	32923	32516
2888	0	38940	40698	43713	26577
2889	0	40594	44552	43649	33173
2890	0	28514	40891	41181	34951
2891	0	44585	44385	29755	36997
2892	0	31105	40536	37790	44986
2893	0	27485	44207	36818	40738
2894	0	39489	40798	27918	33203
2895	0	32500	34735	35369	41844
2896	0	33770	29955	43590	43487
2897	0	40209	31321	33435	43400
2898	0	32732	40860	28925	38583
2899	0	28249	44136	37789	41594
2900	0	27949	36288	34733	34369
2901	0	43579	27640	25671	35147
2902	0	27831	27081	27481	38627
2903	0	25461	28289	25669	43673
2904	0	32326	43555	44247	38323
2905	0	35881	44395	42822	34497
2906	0	34621	31127	43457	27079
2907	0	31805	29614	35948	32314
2908	0	35980	30571	31456	43269
2909	0	36031	25966	35338	29360
2910	0	32050	37090	28895	30997
2911	0	32502	27827	39783	40538
2912	0	29262	29144	41628	40022
2913	0	34181	35037	25772	26278
2914	0	35898	35377	34032	43268
2915	0	34955	36428	38705	40819
2916	0	35242	37588	31913	26257
2917	0	34529	28836	42512	28162
2918	0	32064	40525	41855	28023
2919	0	35759	26086	41300	37583
2920	0	35253	35990	25670	35352
2921	0	29739	39531	28935	37580
2922	0	34535	36428	36320	30014
2923	0	34689	26261	43069	33718
2924	0	41145	34863	25713	28325
2925	0	26499	27351	43450	34281
2926	0	27657	39623	26177	26799
2927	0	35504	31552	34206	34189
2928	0	31636	38631	31838	40257
2929	0	34497	42650	33573	33853
2930	0	29916	29699	27791	30268
2931	0	30218	27395	37378	36165
2932	0	41259	44119	43648	42990
2933	0	34849	26145	29051	30052
2934	0	31054	30210	25409	25169
2935	0	31686	38694	32123	39639
2936	0	28418	44192	42056	26080
2937	0	36264	33966	38133	31061
2938	0	41088	39486	43330	30834
2939	0	44836	42636	40548	26585
2940	0	40419	43424	34489	28796
2941	0	26765	25853	27020	39390
2942	0	41649	31731	32771	31461
2943	0	32438	34054	35629	27703
2944	0	43026	28782	38110	27484
2945	0	27397	26940	25842	44149
2946	0	41489	41428	44499	40403
2947	0	40571	30935	29691	44750
2948	0	39376	28561	29409	38691
2949	0	29709	33426	44700	44153
2950	0	30439	26070	30400	28069
2951	0	32834	37392	31055	41182
2952	0	41017	34490	31769	38981
2953	0	32193	43119	33133	32035
2954	0	27089	26111	42472	40626
2955	0	41137	31800	28680	29774
2956	0	25312	27486	41891	33526
2957	0	43341	26489	31343	28195
2958	0	30527	37110	30686	30536
2959	0	26654	28808	37746	44125
2960	0	37179	25363	33388	32615
2961	0	32307	41118	40142	28308
2962	0	40823	39469	44853	40816
2963	0	37576	39516	40359	42811
2964	0	28427	43861	36661	35274
2965	0	36797	43064	36941	32248
2966	0	36361	32859	38869	42801
2967	0	31151	26281	35796	42681
2968	0	36490	29976	30729	39387
2969	0	41389	44154	40254	39707
2970	0	31847	38786	26805	26346
2971	0	40903	27346	30842	33648
2972	0	25157	26972	25466	33529
2973	0	31910	40656	37157	42720
2974	0	30414	32511	31895	37544
2975	0	40221	39232	28486	39461
2976	0	44879	26142	37747	31452
2977	0	37819	40258	36938	38119
2978	0	32840	41370	26618	34933
2979	0	31932	29953	29461	30387
2980	0	33573	27665	29910	43915
2981	0	27283	29521	31354	28917
2982	0	36036	43835	29316	29011
2983	0	30715	39596	40632	42848
2984	0	26900	30575	33348	37204
2985	0	38580	33030	33226	36522
2986	0	25551	34726	27406	38602
2987	0	26492	37064	31158	25756
2988	0	37344	26393	28553	25906
2989	0	38256	43220	30666	35411
2990	0	41328	34680	34279	28204
2991	0	37931	33119	38607	33115
2992	0	33539	39627	38625	29395
2993	0	44395	37974	43593	34972
2994	0	31168	27671	38417	43679
2995	0	34220	34500	39513	35834
2996	0	32559	41024	33659	25590
2997	0	33630	40116	31253	31141
2998	0	36206	35567	40763	28680
2999	0	32354	32642	39800	35692
3000	0	39604	40988	25642	26101
3001	0	30697	37473	40877	30118
3002	0	40273	42814	36597	44794
3003	0	35982	37702	41220	32375
3004	0	36302	41528	32160	35511
3005	0	38458	37708	26226	31752
3006	0	44322	41019	40016	26324
3007	0	32131	30847	30712	44368
3008	0	25323	29414	39229	25695
3009	0	38606	39366	41713	39515
3010	0	42902	41857	40003	42869
3011	0	27241	28839	39838	32042
3012	0	33112	25182	33104	27992
3013	0	41596	43337	29190	37145
3014	0	39657	32643	33759	33877
3015	0	26168	41179	40779	27552
3016	0	34181	43391	39352	34543
3017	0	39429	25850	36706	28317
3018	0	42889	43194	27700	25483
3019	0	39081	33140	27413	30126
3020	0	34310	25611	41856	37213
3021	0	41556	43186	42548	25130
3022	0	36740	30494	34509	29075
3023	0	36940	41016	40988	33926
3024	0	44413	28091	44748	32029
3025	0	39376	38296	25247	36099
3026	0	27825	30426	38876	35856
3027	0	43754	30374	29944	29755
3028	0	28074	44170	29033	26233
3029	0	43749	40469	44097	43412
3030	0	27842	34570	31597	32192
3031	0	43791	35071	30747	29085
3032	0	34186	41439	28917	31695
3033	0	26773	43504	34225	38766
3034	0	40093	36973	28360	35187
3035	0	25439	36084	34528	31432
3036	0	36854	31913	44457	40557
3037	0	25722	43230	29499	32445
3038	0	41326	28101	40528	38465
3039	0	28983	30827	33183	44876
3040	0	39548	25640	32001	30197
3041	0	36286	41146	41867	29715
3042	0	30672	32904	43980	27837
3043	0	41708	41680	38036	31279
3044	0	28369	43670	40201	44383
3045	0	31936	26515	38234	34918
3046	0	41709	42536	28550	35783
3047	0	31502	27468	29046	38747
3048	0	28065	37614	25869	35989
3049	0	32645	25433	28995	25171
3050	0	25370	38013	40851	25106
3051	0	42695	44627	33997	35822
3052	0	26310	34224	25633	33687
3053	0	31616	25431	25141	41969
3054	0	38925	30359	39441	42954
3055	0	26567	35978	39034	35427
3056	0	34215	26560	40106	30431
3057	0	38375	26015	33695	36083
3058	0	41978	41633	27626	33034
3059	0	36304	30063	26908	35704
3060	0	42308	33483	41838	37506
3061	0	39297	31301	33131	27003
3062	0	31916	28136	41028	34700
3063	0	41832	43561	41106	28098
3064	0	35857	44045	33775	35809
3065	0	34165	38672	40920	27103
3066	0	27419	41773	40096	42150
3067	0	25451	43607	43522	38240
3068	0	44056	27825	32278	32415
3069	0	28059	32142	28714	37221
3070	0	26085	28824	40818	32448
3071	0	26218	27375	30832	38846
3072	0	36756	44110	27209	35719
3073	0	41680	39329	42523	39973
3074	0	40587	40211	31359	25594
3075	0	35517	37138	29639	25248
3076	0	35124	32795	34264	41209
3077	0	27233	37670	26572	33668
3078	0	39289	33735	41233	37600
3079	0	28726	39575	28613	38531
3080	0	32501	43674	32452	25830
3081	0	33212	42948	32977	38149
3082	0	28211	34596	40590	39315
3083	0	27458	39915	29745	30006
3084	0	32056	33550	40849	29410
3085	0	39383	37220	38234	27488
3086	0	42847	40317	37751	32334
3087	0	27522	33607	29656	28722
3088	0	30762	39350	38147	40081
3089	0	39867	41169	29760	42896
3090	0	32843	28237	25873	30206
3091	0	41151	28873	26164	43326
3092	0	28085	34781	41559	28211
3093	0	39983	39199	26950	37332
3094	0	35608	27046	30570	27353
3095	0	25863	32885	25104	39975
3096	0	36683	27358	39094	31879
3097	0	38880	34763	39692	30118
3098	0	35624	39091	40548	43982
3099	0	30110	28714	42245	25719
3100	0	27753	28764	31216	25655
3101	0	30724	28724	36263	26817
3102	0	29576	35806	28474	39594
3103	0	31883	31104	31614	26843
3104	0	36585	32673	39285	39254
3105	0	37780	28127	41551	32746
3106	0	36667	41873	37984	37187
3107	0	29692	43358	29624	39644
3108	0	38821	35752	31336	43311
3109	0	30370	25348	26239	34627
3110	0	36622	37418	39970	43916
3111	0	38360	38842	30234	29362
3112	0	41272	40918	30661	42126
3113	0	39228	40229	43266	35443
3114	0	34867	42897	35955	28726
3115	0	39645	30129	40382	37635
3116	0	32638	32804	33896	42376
3117	0	36960	37036	39260	40002
3118	0	40482	38439	43936	33351
3119	0	39480	41222	42312	39600
3120	0	44302	29173	28869	32739
3121	0	37286	25939	27581	39028
3122	0	31366	42538	35753	34249
3123	0	44021	26330	44184	34687
3124	0	32780	36322	33551	29276
3125	0	38824	40905	41493	42063
3126	0	25317	26417	32907	33193
3127	0	43961	40297	27390	25203
3128	0	29461	33307	33688	26155
3129	0	37952	39179	41513	33671
3130	0	38916	31563	38119	34269
3131	0	26200	37045	36628	34046
3132	0	39686	40957	40306	28712
3133	0	29018	33713	37944	26894
3134	0	35133	44843	25779	39735
3135	0	40039	36783	29230	35948
3136	0	37205	29609	31126	27013
3137	0	30570	35233	30318	28160
3138	0	36732	30850	34762	37996
3139	0	28796	39674	25385	38563
3140	0	32724	37309	33957	25503
3141	0	31175	44559	37303	40391
3142	0	32196	28794	36240	41406
3143	0	25942	36507	39747	35882
3144	0	44025	27873	40335	43864
3145	0	39712	34412	26985	42940
3146	0	33404	27938	34316	27962
3147	0	42917	37815	35499	35955
3148	0	28798	30853	40604	30840
3149	0	33978	26863	41466	42072
3150	0	27974	38386	29204	28805
3151	0	37068	32749	27928	41819
3152	0	37312	30907	40928	37810
3153	0	38485	41113	42090	34649
3154	0	41439	26485	39823	29403
3155	0	35235	35495	34419	25906
3156	0	29357	43381	41450	29123
3157	0	30384	31156	29855	31071
3158	0	26985	40626	30824	42082
3159	0	31796	31656	36873	41879
3160	0	29447	35200	41557	25407
3161	0	25550	42270	37518	30668
3162	0	42086	28799	39486	29744
3163	0	37866	38348	39075	38871
3164	0	26661	26879	37356	40944
3165	0	41394	37225	31040	39566
3166	0	27118	28868	40919	35805
3167	0	28249	30717	43769	41845
3168	0	33222	30094	42733	25276
3169	0	35525	38883	44433	28568
3170	0	42652	44305	28246	40938
3171	0	42907	34582	39808	39147
3172	0	26559	42621	28067	43223
3173	0	30215	28091	41888	26301
3174	0	38538	29604	39499	43830
3175	0	36879	44942	27602	36053
3176	0	38831	34025	25010	44487
3177	0	25742	28712	44851	34450
3178	0	38181	40641	35458	39044
3179	0	43015	27180	39704	25215
3180	0	42028	41553	32920	42711
3181	0	29382	26845	25551	33695
3182	0	26006	31292	36367	43240
3183	0	37732	32813	39476	37393
3184	0	34192	44519	38080	35982
3185	0	40454	33366	44451	25246
3186	0	31039	32934	42343	37007
3187	0	29825	26636	25177	28247
3188	0	37887	38773	36344	33613
3189	0	34057	32584	40862	25065
3190	0	31362	29565	35060	26313
3191	0	31175	39329	38556	30633
3192	0	29849	44691	43721	30338
3193	0	35272	44588	39572	40147
3194	0	31170	28636	42376	36111
3195	0	27718	29986	42586	25645
3196	0	40541	36868	43348	41439
3197	0	34942	32769	38361	30850
3198	0	33753	44215	25292	35213
3199	0	26521	33722	30771	39238
3200	0	39765	31954	31260	30848
3201	0	35515	35174	32190	44812
3202	0	29784	32705	35199	38176
3203	0	29503	40229	40900	38052
3204	0	37316	32694	39639	25750
3205	0	35276	39951	36655	29551
3206	0	25483	42883	33904	33643
3207	0	44885	42920	26462	27880
3208	0	30527	25067	30049	38839
3209	0	44279	30475	35719	43980
3210	0	26801	28550	44194	30444
3211	0	40401	35086	33947	43071
3212	0	44672	44786	28101	41820
3213	0	26111	44721	28152	33597
3214	0	27634	26927	26185	29206
3215	0	26117	39983	30120	39195
3216	0	41442	36057	28344	30379
3217	0	37711	28141	37700	31521
3218	0	39291	42656	32716	29493
3219	0	36107	26441	31121	32710
3220	0	26079	41337	42239	40858
3221	0	37336	38885	34693	36565
3222	0	35080	34150	37398	30542
3223	0	30696	37188	40567	35988
3224	0	34320	34833	28442	31800
3225	0	42199	35903	31620	29923
3226	0	39326	31890	28549	32346
3227	0	39113	27663	41991	39259
3228	0	40847	41660	44911	28608
3229	0	33735	34368	34294	39239
3230	0	29892	44305	36719	37744
3231	0	44634	33923	31594	43703
3232	0	38578	30616	27430	27672
3233	0	27821	27175	39856	37666
3234	0	39842	35046	33871	44610
3235	0	25612	31072	42213	41134
3236	0	36987	33277	40969	44624
3237	0	43485	40418	33349	37059
3238	0	31387	34084	38919	32353
3239	0	44317	38376	27278	35306
3240	0	27530	32383	36896	43032
3241	0	44971	38873	31593	43518
3242	0	25114	25624	43730	25964
3243	0	34243	40242	41629	32588
3244	0	39813	35603	36951	43019
3245	0	44074	25007	32505	33619
3246	0	38142	37507	34878	25902
3247	0	43669	43341	35463	28502
3248	0	32463	33631	36746	42740
3249	0	28647	33690	31415	42504
3250	0	42273	27362	37804	28230
3251	0	39212	42035	34126	31890
3252	0	30946	27734	26722	39055
3253	0	25157	37298	40437	30432
3254	0	34941	33971	43475	26783
3255	0	39532	29890	31118	28632
3256	0	37160	37157	33802	30100
3257	0	40401	36994	38133	25261
3258	0	37047	39059	32973	26125
3259	0	33851	42466	28199	28101
3260	0	31587	33556	30545	40156
3261	0	44079	30524	32504	28668
3262	0	40217	29380	28641	32320
3263	0	33675	25519	42825	35142
3264	0	37578	44755	36841	26703
3265	0	43035	43665	34982	34712
3266	0	36285	30012	36745	27389
3267	0	39390	44095	41432	38962
3268	0	34561	38106	27799	36913
3269	0	44849	44826	44741	29019
3270	0	31699	37411	37441	26503
3271	0	27151	34892	44540	44448
3272	0	33979	38028	35751	39516
3273	0	39853	31410	30994	26833
3274	0	41522	28830	25993	35874
3275	0	37609	32368	38603	28641
3276	0	43857	44137	31978	37097
3277	0	35473	36327	37669	38508
3278	0	28152	32080	34140	44585
3279	0	25215	33402	36505	43802
3280	0	26027	25474	27296	34054
3281	0	35942	41546	41200	28101
3282	0	37541	32948	32387	29580
3283	0	34123	42179	25770	38812
3284	0	27259	27088	36003	41684
3285	0	28572	35462	43805	26265
3286	0	31177	35619	34237	32064
3287	0	32846	27282	28510	27398
3288	0	27362	41031	25389	44808
3289	0	41241	25589	30247	42343
3290	0	32536	30988	27881	31214
3291	0	26229	44004	44842	30837
3292	0	28503	27988	27805	39396
3293	0	30427	33846	26762	44943
3294	0	44781	42236	39552	26473
3295	0	29920	37040	34347	34538
3296	0	33950	32323	26947	36006
3297	0	42504	42750	42279	41834
3298	0	30874	31383	26855	39215
3299	0	44392	29654	25884	27152
3300	0	29988	31853	25354	42193
3301	0	25079	28626	29448	27683
3302	0	36424	26442	39966	32808
3303	0	36364	25594	25230	32629
3304	0	41518	44539	25369	33056
3305	0	27872	33678	41098	44838
3306	0	34798	43019	41486	38378
3307	0	32391	44828	33699	35042
3308	0	33211	42469	33630	28317
3309	0	29717	26260	43358	36261
3310	0	44732	35646	31077	28826
3311	0	32243	31284	40548	42075
3312	0	43757	37048	25508	36896
3313	0	26701	39730	38794	40212
3314	0	36267	25648	37942	28709
3315	0	40047	36990	27767	39870
3316	0	34176	36456	26572	42588
3317	0	41465	27131	30923	29067
3318	0	37507	31065	44684	41184
3319	0	29844	29602	33716	33556
3320	0	30683	33966	38077	37570
3321	0	27323	36134	35205	33240
3322	0	35348	37240	41089	32097
3323	0	35198	32063	43972	40575
3324	0	27886	32694	37333	39390
3325	0	35382	36691	43088	40079
3326	0	28624	43024	43626	32068
3327	0	43930	41495	29001	28625
3328	0	36023	36122	29434	34469
3329	0	43946	42330	34130	33885
3330	0	29761	36108	29474	40200
3331	0	26671	28495	34954	29059
3332	0	27309	30063	36844	39368
3333	0	31938	39306	39884	41658
3334	0	32353	26843	26008	42303
3335	0	27488	39177	42608	34662
3336	0	29540	30778	36599	39847
3337	0	33754	42752	29652	41635
3338	0	32630	34470	27779	31333
3339	0	28488	35024	25936	27641
3340	0	35093	31734	33271	37756
3341	0	42239	32118	33474	36285
3342	0	26554	33614	39036	40816
3343	0	36082	29896	37093	33226
3344	0	34295	43095	25256	26651
3345	0	34432	40309	29239	41227
3346	0	36507	41483	41306	37027
3347	0	31584	29690	28479	35831
3348	0	41728	34375	37675	38766
3349	0	31075	26173	43760	36497
3350	0	25944	37880	34160	41878
3351	0	42361	33954	40847	42018
3352	0	35206	25384	41176	35517
3353	0	39435	36540	43162	44110
3354	0	39053	26908	39751	41579
3355	0	28385	33819	36976	37073
3356	0	38339	37592	34083	40377
3357	0	38394	34981	33543	32887
3358	0	25607	25934	42635	35423
3359	0	25836	38713	44764	35461
3360	0	41492	29820	32139	42155
3361	0	35159	44538	35679	42986
3362	0	39426	28559	43281	25853
3363	0	38596	40437	33857	43020
3364	0	35950	29963	43117	41860
3365	0	29183	43069	44480	32135
3366	0	27969	41980	35589	40540
3367	0	33704	37580	43596	25432
3368	0	40000	25011	42571	28647
3369	0	25409	36329	29529	36434
3370	0	40941	26034	32132	29717
3371	0	32653	32606	32669	35917
3372	0	35378	30148	32008	29594
3373	0	28875	25523	28917	26176
3374	0	37270	44982	33513	35329
3375	0	32307	26273	39137	38403
3376	0	31835	25002	25684	41736
3377	0	26655	39974	33706	35126
3378	0	27849	36960	27236	34453
3379	0	36481	31834	39931	44463
3380	0	42449	38742	33241	36148
3381	0	34871	28112	28697	31025
3382	0	37950	42769	32971	37776
3383	0	31948	33340	44080	32257
3384	0	32746	25687	37141	41646
3385	0	27302	28497	38808	29277
3386	0	25468	29989	41785	25490
3387	0	33514	33956	30922	34622
3388	0	25327	32313	25041	32499
3389	0	35005	33518	40620	27273
3390	0	43110	41618	27775	30926
3391	0	30946	31000	36949	33609
3392	0	29052	39292	40621	35084
3393	0	33747	32187	30552	38855
3394	0	41498	25931	37651	35182
3395	0	25353	39743	38454	39500
3396	0	39045	26992	40891	44271
3397	0	26505	38904	42076	40545
3398	0	43033	44959	32714	32531
3399	0	30059	33596	34726	39219
3400	0	32364	39747	27040	33984
3401	0	43146	41169	37558	29383
3402	0	41688	41509	26715	38426
3403	0	36691	43270	31981	32879
3404	0	29822	43731	40998	36640
3405	0	36320	27684	28779	26309
3406	0	25870	36943	43944	30826
3407	0	37133	27085	29275	26515
3408	0	29351	33775	43463	40025
3409	0	44082	34411	40931	39514
3410	0	41466	41251	40288	30825
3411	0	25514	31298	39283	38471
3412	0	43898	37579	40030	29388
3413	0	28135	44533	41784	37066
3414	0	37546	30518	36511	37789
3415	0	40961	32424	44876	40902
3416	0	39361	38414	36132	37497
3417	0	27553	38820	26017	37118
3418	0	43429	29162	32781	35758
3419	0	43408	26384	36341	27951
3420	0	29918	34936	27623	26663
3421	0	44617	35390	39342	32659
3422	0	28735	40856	29497	40031
3423	0	33869	40848	36471	32332
3424	0	42866	43606	35882	32647
3425	0	34267	33971	35469	28181
3426	0	36511	34810	41180	34863
3427	0	42252	31097	38433	38769
3428	0	32615	39962	44815	41170
3429	0	40269	33341	34023	26343
3430	0	40528	41853	31221	34272
3431	0	31841	38787	35031	28651
3432	0	29686	33656	31779	35443
3433	0	28623	34940	43784	43778
3434	0	34922	35279	43779	32012
3435	0	28006	33030	34850	26332
3436	0	38589	25963	30986	39500
3437	0	27383	37292	26660	40220
3438	0	44855	35671	32123	27777
3439	0	33388	41616	29498	28742
3440	0	43000	41691	39308	39338
3441	0	33240	36501	30202	29325
3442	0	28940	44930	39323	44340
3443	0	27275	35630	32419	34675
3444	0	37838	31604	34263	26816
3445	0	37580	34381	43018	30928
3446	0	40535	39390	40237	35756
3447	0	37614	34927	25297	44875
3448	0	43885	34969	29177	32623
3449	0	44845	42563	38379	35615
3450	0	44877	28941	32902	36905
3451	0	44247	31638	39129	25744
3452	0	37722	34203	33367	34101
3453	0	36767	31134	27402	25505
3454	0	38148	34824	28977	26574
3455	0	34178	28902	44698	36339
3456	0	30238	28469	27270	44996
3457	0	39783	29691	30235	38798
3458	0	31405	44605	38200	38125
3459	0	31435	31402	41545	29128
3460	0	33892	33238	43905	26671
3461	0	29242	26225	44511	31932
3462	0	37867	36302	40699	44832
3463	0	35351	38231	36303	31026
3464	0	37930	34392	29098	29734
3465	0	32279	36535	42714	30212
3466	0	44456	31922	31027	32077
3467	0	27626	33957	36191	37032
3468	0	34007	43466	25767	42800
3469	0	35124	40869	38147	38607
3470	0	25555	25859	31695	32401
3471	0	35883	27176	39743	33089
3472	0	27370	31893	43117	40604
3473	0	40435	41414	39834	28712
3474	0	31552	34183	36751	43131
3475	0	42746	42456	39669	34965
3476	0	42645	32205	31987	26003
3477	0	32061	27085	44203	37077
3478	0	29349	38962	29033	26583
3479	0	39177	35042	28930	33095
3480	0	40781	37839	41655	38537
3481	0	26695	25153	37007	35604
3482	0	33955	28541	40759	35203
3483	0	30855	37244	39953	33904
3484	0	25971	40080	37045	35853
3485	0	38069	41148	34471	40095
3486	0	31484	42450	28270	38596
3487	0	38578	31330	40411	42249
3488	0	28032	35273	44489	38254
3489	0	32784	44391	38991	41651
3490	0	37119	33789	34875	25641
3491	0	25533	40246	42470	29880
3492	0	36309	25954	28124	30102
3493	0	33438	43172	36014	41693
3494	0	27882	36980	31975	28301
3495	0	25731	37617	32312	31405
3496	0	38871	25966	35244	25343
3497	0	36891	31244	34517	28556
3498	0	42492	34146	36754	42533
3499	0	39399	40578	32261	39023
3500	0	25739	25573	28426	28296
3501	0	33920	36547	40474	25570
3502	0	44383	32917	36232	30695
3503	0	29210	27768	25996	36322
3504	0	33144	40204	36096	42758
3505	0	38727	44093	29965	31601
3506	0	38635	25909	40355	30453
3507	0	27588	44452	30503	35114
3508	0	34036	37821	32733	31306
3509	0	32424	35359	36610	36793
3510	0	33951	42339	39384	38846
3511	0	43967	44977	31831	43865
3512	0	33151	28158	44766	36816
3513	0	27529	43810	36474	25559
3514	0	26849	43157	32241	31630
3515	0	41856	34770	43040	34212
3516	0	40627	29275	27956	26231
3517	0	31141	28742	28940	28039
3518	0	26249	30075	44843	33883
3519	0	36207	43050	33866	32245
3520	0	37647	42622	25419	33874
3521	0	27743	38241	32239	35833
3522	0	38590	35437	37406	38617
3523	0	35963	42513	44822	36454
3524	0	30177	40086	32366	26130
3525	0	30604	29463	27529	44479
3526	0	43170	29719	29282	41278
3527	0	33669	28209	38358	33327
3528	0	44362	41082	44354	29448
3529	0	35839	33744	36166	26599
3530	0	29566	38224	30121	34692
3531	0	35828	39914	40985	40796
3532	0	40543	38497	39233	39977
3533	0	35705	38662	31122	39284
3534	0	38596	35301	31654	33134
3535	0	38257	35523	30317	34058
3536	0	30056	36202	36951	28973
3537	0	38241	29860	41778	40811
3538	0	36433	43486	32104	32869
3539	0	43475	30681	41290	31448
3540	0	43167	37061	41529	37802
3541	0	38816	30444	34539	44784
3542	0	44349	43566	30091	29513
3543	0	29098	41902	44700	25094
3544	0	36186	33102	38391	35388
3545	0	25669	29630	42166	32076
3546	0	34658	31778	40127	40150
3547	0	43011	39476	42793	42573
3548	0	43078	44683	44984	38636
3549	0	31280	25632	33175	34630
3550	0	25880	32854	44521	41301
3551	0	29004	29920	39539	40840
3552	0	27945	31237	38026	43166
3553	0	26543	44117	38481	42262
3554	0	44725	35203	27555	28136
3555	0	25481	33120	39702	28833
3556	0	29547	42157	39666	27506
3557	0	35352	25365	43639	43705
3558	0	39369	36820	28779	39272
3559	0	42539	25219	38372	36114
3560	0	35543	33938	43867	44415
3561	0	39489	30631	44733	34353
3562	0	37796	29050	25589	36912
3563	0	30639	30184	41015	42385
3564	0	25796	37102	37042	36186
3565	0	41308	39352	28426	29261
3566	0	40641	37398	43611	29972
3567	0	29358	36152	37697	44967
3568	0	42662	39623	32403	40562
3569	0	27280	36789	40005	28269
3570	0	44829	37129	29415	37180
3571	0	41797	36212	31768	30868
3572	0	36036	34121	33602	44102
3573	0	32213	41146	41640	38325
3574	0	31467	30441	43106	25431
3575	0	35753	38382	35240	41627
3576	0	35397	27767	34520	29918
3577	0	35893	39997	38261	32767
3578	0	34107	39333	29054	38418
3579	0	43089	41299	35495	25373
3580	0	39667	36355	27913	31867
3581	0	36290	31570	38861	42460
3582	0	39692	33915	34691	38788
3583	0	27703	36664	32810	33515
3584	0	28136	34560	32902	40456
3585	0	34388	33814	27687	30785
3586	0	31883	25282	40293	44079
3587	0	27629	28580	36108	40426
3588	0	33938	36427	36528	43045
3589	0	44401	42899	28666	42159
3590	0	42403	38903	38455	27506
3591	0	34588	37507	33477	38804
3592	0	30060	41714	43711	26604
3593	0	35761	43861	40048	27287
3594	0	37346	27288	43198	38461
3595	0	27594	40069	41698	42132
3596	0	38969	27963	38833	29395
3597	0	34472	28384	39848	34237
3598	0	44475	41334	35624	44160
3599	0	38312	41149	32439	34585
3600	0	44594	25585	42291	44759
3601	0	26556	41269	39691	33460
3602	0	43006	44771	39198	36536
3603	0	28804	27744	32392	42585
3604	0	30634	40915	33477	37006
3605	0	42780	38402	28497	25034
3606	0	42315	30556	33862	25603
3607	0	43993	35589	27320	34365
3608	0	41625	34918	29267	37594
3609	0	40086	37375	40296	26442
3610	0	41047	26401	30938	44907
3611	0	39744	43941	31293	37428
3612	0	42657	40787	42303	31405
3613	0	30432	32139	28547	30754
3614	0	37442	25580	31703	32267
3615	0	35282	30338	38980	34676
3616	0	34646	44561	36204	42494
3617	0	30053	42995	25256	37867
3618	0	26393	30900	26195	44152
3619	0	42465	33047	27435	25432
3620	0	26809	25624	26889	43633
3621	0	27728	44018	29120	44084
3622	0	27213	28271	38832	39984
3623	0	32154	35670	25132	38933
3624	0	27138	26798	34464	26754
3625	0	31458	43735	44513	37955
3626	0	41927	44858	41060	34877
3627	0	26303	25239	36685	40959
3628	0	30781	44672	25574	30443
3629	0	36906	31884	40799	32149
3630	0	39297	31771	41903	26288
3631	0	36287	27153	28368	29322
3632	0	38623	29300	29840	34309
3633	0	27123	41821	37428	37251
3634	0	26757	44523	25636	38076
3635	0	28993	27745	30425	42066
3636	0	42520	31582	25244	28568
3637	0	27716	33572	38295	44748
3638	0	42479	30018	39556	29534
3639	0	43627	31601	33250	38964
3640	0	39232	37416	43961	37703
3641	0	30065	35004	37552	31947
3642	0	34941	40639	38904	41057
3643	0	29492	39075	31539	25050
3644	0	40557	43109	31523	42589
3645	0	32455	39218	40745	36101
3646	0	33331	26261	33732	41809
3647	0	35633	25033	31949	31350
3648	0	36980	27301	42120	27566
3649	0	40913	34430	37788	31336
3650	0	29599	43242	34114	35581
3651	0	30577	38317	42518	34867
3652	0	34768	37716	31048	40679
3653	0	36259	25593	36522	37021
3654	0	25320	27674	26478	41032
3655	0	28943	26731	26514	28068
3656	0	33551	43312	32170	34503
3657	0	29001	25731	41835	43446
3658	0	40856	33494	41691	43201
3659	0	25608	26301	25280	29603
3660	0	41320	35434	37812	31792
3661	0	44671	35559	38391	27407
3662	0	29558	34334	27327	34020
3663	0	42324	41046	35954	33536
3664	0	38407	33491	28827	39781
3665	0	40207	27004	36110	42691
3666	0	32921	40884	42107	42876
3667	0	41550	25723	44076	37250
3668	0	26807	26631	26949	33746
3669	0	26303	34481	29329	38528
3670	0	28499	44329	41664	32141
3671	0	39201	28229	37482	40882
3672	0	38444	37496	39297	28168
3673	0	37116	31859	38169	38840
3674	0	34491	32606	43115	28391
3675	0	31152	28671	31989	30072
3676	0	30419	38835	36352	43861
3677	0	43333	27341	33284	29004
3678	0	44418	30346	32263	33286
3679	0	40300	43262	34193	43119
3680	0	41978	29457	25497	39189
3681	0	37959	35997	44836	35850
3682	0	31414	37408	32299	35082
3683	0	33762	44873	36718	43430
3684	0	38824	41433	29033	33453
3685	0	42328	33800	31288	43575
3686	0	43238	40533	28849	40869
3687	0	30319	33121	29774	34211
3688	0	42868	25978	27172	37554
3689	0	40379	26847	36324	35163
3690	0	42256	25439	42877	32130
3691	0	25978	39067	43510	39301
3692	0	41303	28495	30749	35631
3693	0	32290	38929	28973	41268
3694	0	25636	26039	31727	42588
3695	0	44108	28584	32961	40470
3696	0	33805	27786	31709	40064
3697	0	40328	40000	26776	30402
3698	0	28595	40590	25648	41522
3699	0	43382	32380	30232	43105
3700	0	31502	35342	43127	38551
3701	0	30207	30795	36293	44444
3702	0	42190	38711	42570	31372
3703	0	42492	26484	38579	29803
3704	0	30585	42342	40763	31659
3705	0	29098	36817	29962	35161
3706	0	32953	32469	32940	32261
3707	0	38966	29105	27884	37271
3708	0	36396	25149	32801	37573
3709	0	43849	39097	41737	30718
3710	0	42063	40414	41852	35621
3711	0	28791	30755	26344	42971
3712	0	41771	37467	37660	33998
3713	0	44645	36614	28550	35650
3714	0	37091	38624	34953	37206
3715	0	42127	25426	25024	25449
3716	0	38597	33542	32720	37428
3717	0	38266	44541	44927	44444
3718	0	31111	39734	33861	28900
3719	0	31795	38697	43855	38405
3720	0	37362	38266	30354	25225
3721	0	25844	39409	32899	31315
3722	0	34977	26213	33056	27658
3723	0	42710	40159	35453	30655
3724	0	38669	26850	31860	43456
3725	0	37914	43722	38796	26357
3726	0	44455	37779	30291	33000
3727	0	26303	27547	30371	36939
3728	0	44547	36664	26409	27616
3729	0	30937	30245	26409	27414
3730	0	43345	35609	37313	33806
3731	0	31317	31125	38803	29311
3732	0	26557	25118	37854	26294
3733	0	27210	43184	26208	30949
3734	0	41774	41955	43210	37474
3735	0	39154	26009	42116	32000
3736	0	41503	40832	25386	33196
3737	0	44291	28071	36092	43131
3738	0	28864	30051	25185	28755
3739	0	30152	38017	42724	33478
3740	0	25410	30245	33338	28691
3741	0	39762	28602	26793	32069
3742	0	33547	39362	44786	36758
3743	0	42924	30299	37233	25895
3744	0	38315	30271	43826	25669
3745	0	31053	32443	40803	37442
3746	0	40771	30815	32036	39351
3747	0	41348	26997	44324	30158
3748	0	29874	33498	33669	41409
3749	0	38611	42149	27302	26041
3750	0	44451	39732	38127	38564
3751	0	31783	26728	43925	26211
