# OpenSignals Text File Format. Version 1					
"# {""00:07:80:65:E0:2A"": {""position"": 0, ""device"": ""biosignalsplux"", ""device name"": ""00:07:80:65:E0:2A"", ""device connection"": ""BTH00:07:80:65:E0:2A"", ""sampling rate"": 1000, ""resolution"": [16, 16, 16, 16], ""firmware version"": 775, ""comments"": """", ""keywords"": """", ""mode"": 2, ""sync interval"": 2, ""date"": ""2022-2-10"", ""time"": ""17:19:13.655"", ""channels"": [1, 2, 3, 4], ""sensor"": [""EMG"", ""EMG"", ""EDA"", ""ECG""], ""label"": [""CH1"", ""CH2"", ""CH3"", ""CH4""], ""column"": [""nSeq"", ""DI"", ""CH1"", ""CH2"", ""CH3"", ""CH4""], ""special"": [{""SpO2"": [80, 40, 5, 4, 3, 3]}, {""SpO2"": [80, 40, 5, 4, 3, 3]}, {""SpO2"": [80, 40, 5, 4, 3, 3]}, {""SpO2"": [80, 40, 5, 4, 3, 3]}, {""SpO2"": [80, 40, 5, 4, 3, 3]}, {""SpO2"": [80, 40, 5, 4, 3, 3]}, {""SpO2"": [80, 40, 5, 4, 3, 3]}, {""SpO2"": [80, 40, 5, 4, 3, 3]}], ""digital IO"": [0, 1], ""sleeve color"": [""dark_blue"", ""red"", ""yellow"", ""red""], ""convertedValues"": 0}}"					
# EndOfHeader					
1	1	37072	40521	25114	36154
2	1	33690	28162	44205	27476
3	1	27486	28881	29295	44910
4	1	31799	29788	37754	28397
5	1	38267	27664	31519	44297
6	1	33505	39933	37544	43656
7	1	28772	39371	29760	41768
8	1	32393	43173	26327	28949
9	1	37398	27379	39670	29992
10	1	34492	44000	40823	28874
11	1	39568	42642	34774	35712
12	0	34889	29567	42691	41294
13	0	41547	37907	35603	33852
14	0	39756	34082	32181	32612
15	0	30839	40785	41960	36859
16	0	36135	31024	37682	31587
17	0	35393	30481	34404	32081
18	0	29734	44812	25057	35234
19	0	31730	35374	25200	26407
20	0	33548	25815	41174	35861
21	0	27176	44100	40389	31726
22	0	26085	29877	29743	41695
23	0	42518	39938	42328	34930
24	0	27483	44522	42696	39679
25	0	31167	38785	31629	32436
26	0	29784	36829	39247	41604
27	0	40897	32330	30190	44596
28	0	39770	27819	31726	32247
29	0	31979	32561	44436	36084
30	0	27142	30459	43595	36474
31	0	32605	25001	43064	43752
32	0	35187	33765	39993	26643
33	0	31480	40853	29165	26369
34	0	26686	44208	39235	37338
35	0	41918	44105	30388	32379
36	0	38815	25524	32202	30020
37	0	41282	29679	38735	41290
38	0	26187	41601	27699	31721
39	0	42160	38770	41849	44024
40	0	38417	40255	41135	35643
41	0	26333	39764	41771	32984
42	0	42144	44371	31708	29788
43	0	38668	29381	29057	40570
44	0	32500	34434	41240	36743
45	0	30669	32035	40767	38684
46	0	36024	44370	32402	44469
47	0	30024	44885	29720	26810
48	0	43113	43309	26181	37767
49	0	39739	43286	33752	31508
50	0	29650	35480	29677	31063
51	0	39174	32244	42095	40798
52	0	33060	39190	32462	31937
53	0	29308	25138	26591	35218
54	0	25049	35252	33935	27384
55	0	40070	32085	33757	38662
56	0	29017	39624	28846	33199
57	0	38333	32650	33542	29651
58	0	37293	29039	41948	34151
59	0	44263	38401	41743	41188
60	0	42045	42276	42590	36634
61	0	40746	42597	41518	36201
62	0	26893	41856	44647	25926
63	0	26396	26507	31868	32063
64	0	37390	36970	36818	33605
65	0	28324	33766	26527	35787
66	0	30310	33795	30888	26760
67	0	34534	36806	44980	41060
68	0	42983	33585	39319	31335
69	0	28817	28424	29771	37644
70	0	41564	34758	27463	25820
71	0	44516	39065	26296	42534
72	0	42258	28343	30456	30242
73	0	38155	44843	27062	27662
74	0	27527	43912	37368	42248
75	0	35885	39180	33431	31965
76	0	37250	35127	29881	27143
77	0	27302	29824	32945	41019
78	0	43183	32996	27964	36638
79	0	25689	41498	36645	25860
80	0	44887	41982	26213	39412
81	0	31200	43048	40947	28087
82	0	28127	44191	30286	38807
83	0	35213	40428	31289	27412
84	0	28610	41197	40080	32694
85	0	27150	34818	29627	44069
86	0	33951	38300	26291	38120
87	0	29806	28169	30834	35316
88	0	40710	25963	33847	36575
89	0	27248	31800	36174	38549
90	0	35808	41706	33476	32912
91	0	34781	27293	38580	39450
92	0	30894	29368	39497	43324
93	0	44861	26498	43915	28485
94	0	25946	36234	31230	27523
95	0	40673	37950	41164	29432
96	0	31744	28754	34801	31504
97	0	31630	37617	28756	38233
98	0	30686	26378	42986	43878
99	0	27669	30063	35969	32397
100	0	28431	27670	40352	41296
101	0	44327	27857	28580	34080
102	0	43135	37222	36924	26411
103	0	41205	42297	43808	27758
104	0	39556	36097	31191	33104
105	0	27604	36345	28619	32890
106	0	44528	42559	36281	42745
107	0	42332	33950	27357	37916
108	0	33165	40283	34855	37563
109	0	32338	33844	34908	27143
110	0	33299	38663	37178	25621
111	0	32144	41907	34189	40619
112	0	32026	42021	34770	38744
113	0	43589	25196	38002	41404
114	0	29893	43787	36444	33836
115	0	34199	36379	33129	40826
116	0	37345	30182	33704	33648
117	0	26348	32942	40947	35732
118	0	26910	37485	35733	34295
119	0	35364	38448	30628	30367
120	0	28919	40464	43801	41806
121	0	32819	38314	42208	33482
122	0	42118	40880	31734	25493
123	0	41462	29131	26942	39923
124	0	28756	34858	42433	36136
125	0	25706	31733	29263	30952
126	0	35340	32890	27941	39317
127	0	40420	37113	25356	30120
128	0	39511	28700	34253	43724
129	0	25535	35127	35487	28442
130	0	42163	28397	37072	44993
131	0	41205	40240	30983	43985
132	0	32670	38423	36609	37013
133	0	39889	30590	29155	44910
134	0	39741	26355	34336	42091
135	0	35458	36563	32443	31453
136	0	43686	41122	39557	29436
137	0	36875	37460	39154	41167
138	0	37604	26432	36868	26017
139	0	34645	25258	39934	30001
140	0	35278	43788	43413	27253
141	0	26121	42745	34729	40378
142	0	35363	40633	27596	44715
143	0	40127	34180	32328	27381
144	0	35265	35553	41656	28176
145	0	29842	25546	29659	39300
146	0	36819	40540	35317	28598
147	0	35358	26898	40519	31226
148	0	31288	25260	37655	35554
149	0	31671	30415	27663	40380
150	0	33514	36527	34043	26126
151	0	28818	36060	44345	28151
152	0	39307	40794	33611	29733
153	0	25667	35960	34241	40285
154	0	41126	35677	41658	42520
155	0	37214	43989	34471	30761
156	0	41294	40381	27501	40515
157	0	28412	30893	32343	44540
158	0	33560	39434	42343	44422
159	0	43202	30824	28004	36354
160	0	31397	26013	25377	37598
161	0	33841	33269	38359	42964
162	0	42400	35988	31118	31954
163	0	42707	26913	35512	25722
164	0	30207	35524	33508	40831
165	0	38573	27265	33109	41412
166	0	38440	42283	38471	44499
167	0	29024	30676	30969	26699
168	0	40043	43571	39382	36676
169	0	29026	44605	25349	41585
170	0	27021	25781	29011	32148
171	0	35985	40192	42960	37838
172	0	29000	35235	30744	43480
173	0	37399	27055	33470	32843
174	0	40771	25578	41812	34606
175	0	39089	38607	36643	43433
176	0	34264	36196	42408	27804
177	0	31138	29463	43725	29171
178	0	44787	44463	43135	34469
179	0	41175	43945	33520	42761
180	0	34353	29463	27078	43691
181	0	35391	25736	37055	31660
182	0	41646	34774	28921	31583
183	0	41724	32590	27816	41877
184	0	29274	42594	39640	40619
185	0	41507	33240	31007	29232
186	0	40826	36461	26113	44346
187	0	36238	39912	28294	25486
188	0	32695	28649	42983	32793
189	0	34193	27376	31805	44782
190	0	35523	35477	35966	32877
191	0	36800	38144	33611	26625
192	0	27559	30108	39372	32291
193	0	33875	28460	25635	29856
194	0	44131	25592	44222	29045
195	0	25212	33251	39351	28738
196	0	29303	29448	39269	36790
197	0	39415	40376	33247	27707
198	0	25538	44324	35536	38644
199	0	43859	44063	35221	34365
200	0	29426	28635	41890	27975
201	0	32613	35333	31935	33763
202	0	33202	31475	35622	42776
203	0	42458	31212	44645	28672
204	0	38096	41422	40573	30810
205	0	28720	40653	29139	35344
206	0	26192	37410	33973	37115
207	0	41344	33002	40442	35026
208	0	44442	26148	34396	42897
209	0	34996	40152	41831	33442
210	0	43212	30212	40562	25370
211	0	29060	38380	29732	38652
212	0	30132	35050	32507	26982
213	0	33180	31237	26484	40941
214	0	30654	39938	25114	38827
215	0	26772	37721	41765	36363
216	0	35852	31562	29236	38805
217	0	43701	29828	29615	42759
218	0	25843	29589	39031	29988
219	0	37932	25515	44430	38649
220	0	32245	27060	42301	26565
221	0	30502	37532	39466	32852
222	0	44588	40023	37877	32393
223	0	40690	37098	44592	33458
224	0	36605	40362	35345	25195
225	0	40923	26275	33919	25669
226	0	36135	33400	29180	35908
227	0	36014	25513	27083	32864
228	0	34476	32330	30806	44617
229	0	43483	42442	40386	38409
230	0	38186	42275	26771	39935
231	0	42770	33125	42808	33749
232	0	39989	33101	27958	40945
233	0	28263	44478	28926	27399
234	0	26672	39414	31363	27126
235	0	37030	30960	30601	26636
236	0	32347	40707	43256	30866
237	0	35275	44723	30825	28515
238	0	26574	37983	37266	30051
239	0	28822	26716	41653	28122
240	0	35485	44318	39720	42325
241	0	36284	29028	35487	31846
242	0	38713	32275	29483	38897
243	0	32948	36276	31762	38704
244	0	26957	40134	27071	28923
245	0	26606	40119	42860	38738
246	0	34763	39180	30327	37005
247	0	32516	41267	43111	31193
248	0	41046	43362	30459	32371
249	0	41816	30925	25330	28527
250	0	35841	29775	28840	31076
251	0	36420	36626	26264	40081
252	0	41382	42480	39683	33408
253	0	31436	36239	34042	32879
254	0	33895	37152	28895	27023
255	0	36003	39273	42246	25340
256	0	39916	25868	33994	25306
257	0	28611	40411	26369	26421
258	0	40711	29743	32258	44153
259	0	26697	40710	30436	35481
260	0	29944	43745	26818	33742
261	0	31365	28871	43110	43018
262	0	43441	30296	42051	28143
263	0	32961	27973	37879	43715
264	0	33941	25718	33534	38252
265	0	39561	44792	44947	42811
266	0	40515	26886	39094	38264
267	0	33326	42563	33407	25267
268	0	29198	32048	42495	42419
269	0	34221	35322	31115	33825
270	0	38703	32730	39045	37720
271	0	40148	37748	29866	38808
272	0	26838	34022	35813	41634
273	0	40486	35992	39789	40786
274	0	42110	37186	26474	41977
275	0	26486	33455	42340	36448
276	0	43397	25414	33252	42355
277	0	32986	25214	30475	32987
278	0	34019	36331	27742	37134
279	0	39171	41089	35332	30141
280	0	30421	30728	39273	40711
281	0	34465	36943	30280	26203
282	0	42551	35088	36812	28398
283	0	42777	36043	43229	25742
284	0	33738	43767	44805	33258
285	0	38855	38715	41773	33488
286	0	39655	26898	43442	31961
287	0	39256	28051	30937	27208
288	0	44996	30178	29350	39840
289	0	28236	25947	40400	42429
290	0	35158	43350	40389	35728
291	0	27229	32592	39108	30964
292	0	41752	42803	30552	33823
293	0	26459	44722	43897	42490
294	0	43217	36201	42871	43571
295	0	30393	38185	29443	44768
296	0	41939	32664	25927	28925
297	0	41173	37826	25700	34251
298	0	40680	40192	26880	37188
299	0	40829	29530	34710	34176
300	0	30213	34038	37438	42354
301	0	37819	28263	26128	44410
302	0	36443	35097	29547	43223
303	0	34591	41596	41129	33843
304	0	42712	40976	42475	44199
305	0	30384	43990	29666	26380
306	0	40756	40045	30877	37834
307	0	29192	38758	39614	34766
308	0	32756	32585	26439	37727
309	0	34128	43294	26371	37128
310	0	32017	36295	33166	38656
311	0	42447	31476	33535	37996
312	0	42198	39477	31625	41733
313	0	40714	34305	28117	31789
314	0	29085	39453	44270	38316
315	0	41242	38009	44083	30254
316	0	36851	40154	40575	43694
317	0	44891	43923	27222	37991
318	0	31380	41759	38620	32837
319	0	40352	42067	34350	31774
320	0	25084	37580	42357	31556
321	0	36568	28450	37485	41481
322	0	31017	34346	27295	25850
323	0	35769	29061	30963	33670
324	0	33551	31544	36372	43421
325	0	40847	43992	38699	25850
326	0	42177	29058	26353	38613
327	0	27306	27284	42354	37547
328	0	39381	30188	26582	27496
329	0	42248	36609	31574	27541
330	0	36353	44054	42819	39796
331	0	32553	32464	34295	37371
332	0	44208	44224	27502	41560
333	0	29443	29627	43261	35658
334	0	27918	41098	41315	25764
335	0	35483	33298	29001	31798
336	0	34763	43061	33427	36370
337	0	33204	31569	30862	29195
338	0	37955	40110	36724	28430
339	0	43169	27952	44910	31599
340	0	32753	34212	26871	25426
341	0	38488	30165	34708	33581
342	0	36767	33009	40443	43559
343	0	38313	43715	28620	44993
344	0	38614	25195	37015	39742
345	0	38194	43107	31543	41196
346	0	27519	34167	44063	41267
347	0	37617	40162	32280	37607
348	0	38840	39756	41425	28106
349	0	26125	43355	43990	37696
350	0	31521	26576	31327	37117
351	0	37193	30301	43855	37959
352	0	28879	37532	41681	37933
353	0	30126	28205	39398	35403
354	0	43948	43879	41183	41326
355	0	41641	43584	38539	35961
356	0	35608	35310	39895	27521
357	0	42336	31173	31947	30655
358	0	37286	30871	40138	37712
359	0	40628	30054	25101	36413
360	0	42505	31622	42268	27961
361	0	35388	34797	42692	38905
362	0	30508	25001	40464	42828
363	0	43263	40002	42114	36894
364	0	38324	31908	25399	39772
365	0	38810	27145	44233	36390
366	0	26176	35439	30499	28642
367	0	40337	29160	36985	26182
368	0	29907	36533	26230	31580
369	0	39464	38009	27463	29605
370	0	44129	42653	36342	41341
371	0	44329	37141	37574	26778
372	0	31204	39626	36328	36790
373	0	32040	42520	41827	29599
374	0	28305	31189	42301	36419
375	0	28708	42923	37587	25736
376	0	26731	25896	34633	30018
377	0	36446	31585	36874	29316
378	0	37840	39903	27427	39928
379	0	41507	25631	44743	29627
380	0	35388	40489	40036	33124
381	0	37393	39158	25489	41236
382	0	43118	41354	31039	43453
383	0	35820	29098	37317	44658
384	0	34355	25682	29873	32808
385	0	29797	34442	41702	42162
386	0	25930	34360	32868	42731
387	0	39598	28885	31402	36744
388	0	26278	30610	39240	32065
389	0	32832	27559	29325	44190
390	0	26056	41989	28724	39846
391	0	42806	43130	40586	32888
392	0	44231	35263	27781	28977
393	0	27647	43968	40276	44736
394	0	31027	34903	35683	43465
395	0	33998	44407	37817	35055
396	0	44939	41386	34157	35714
397	0	36715	29032	42859	28532
398	0	35965	27294	42368	34325
399	0	32356	28727	28584	28400
400	0	32909	37913	26147	32968
401	0	28547	44431	34003	39488
402	0	36152	42856	29630	43196
403	0	42222	38792	36866	38375
404	0	35253	38975	35037	32746
405	0	40969	33399	44259	39833
406	0	34448	25845	35270	25644
407	0	40474	42090	39009	38872
408	0	41631	44347	34460	31271
409	0	26180	32245	25515	31173
410	0	33161	44941	26257	34768
411	0	38336	36071	39386	25721
412	0	36715	32613	31524	33983
413	0	44487	27802	40330	34900
414	0	28277	40403	37057	26143
415	0	33483	42545	29005	43863
416	0	26193	40521	26918	36487
417	0	36257	38002	35649	38098
418	0	37156	41244	26046	44480
419	0	26275	43689	43585	43879
420	0	25282	37549	31465	27319
421	0	43774	33751	35725	42582
422	0	42600	31609	39281	26739
423	0	41941	36244	41830	30893
424	0	26708	32390	25098	32844
425	0	43385	36945	31356	31152
426	0	35047	31160	33485	27170
427	0	39733	36252	40559	35672
428	0	44709	35719	40186	43476
429	0	34658	38684	38892	25611
430	0	44183	43938	35382	35418
431	0	33678	37754	30469	28801
432	0	25723	36510	27039	29695
433	0	32864	42481	32756	27840
434	0	40031	43664	30300	25073
435	0	37968	38313	35597	26003
436	0	27682	35085	35395	40817
437	0	38180	25055	39281	27389
438	0	27387	26295	31425	39968
439	0	38694	29956	38835	27523
440	0	25435	41793	28470	41586
441	0	43621	28491	29104	30228
442	0	30415	42122	33621	42157
443	0	30408	25085	34416	29137
444	0	35031	44567	39688	34109
445	0	28695	35893	39417	25514
446	0	39621	36030	44442	25592
447	0	30754	42668	42107	34647
448	0	42603	32832	29363	31310
449	0	35130	33919	34301	34031
450	0	43148	30437	35400	34557
451	0	28063	31406	27231	38300
452	0	31685	39736	25033	28161
453	0	40565	29593	30785	31440
454	0	42225	27231	30872	41845
455	0	26045	39685	43431	31214
456	0	25639	25541	37833	33638
457	0	29897	28975	35234	25752
458	0	43250	42391	44648	42322
459	0	37672	36551	28100	37057
460	0	25299	38877	31000	39741
461	0	42737	27656	28280	25738
462	0	28756	28726	34958	29512
463	0	25485	33468	38353	35520
464	0	39500	44848	39893	26988
465	0	39201	34012	43779	41812
466	0	28585	35822	31067	29879
467	0	33703	40719	38407	41702
468	0	34449	26109	41392	36509
469	0	32700	32609	31621	26187
470	0	35815	44190	32948	40254
471	0	30573	27041	28216	36909
472	0	38897	36792	42239	27296
473	0	31887	31449	40367	36397
474	0	28153	44277	33058	36490
475	0	29441	42445	44584	30243
476	0	35352	37482	35103	25343
477	0	25952	39243	44936	29432
478	0	25314	30369	31439	39460
479	0	43077	36245	32791	43857
480	0	29966	31447	42336	27060
481	0	28373	43827	29245	38424
482	0	29508	31986	32753	43455
483	0	40917	25217	44903	32416
484	0	35964	26687	39406	27403
485	0	25641	29540	32331	34841
486	0	38946	40673	44550	29962
487	0	42291	36094	39268	25357
488	0	43969	44547	26660	34582
489	0	31689	27344	42218	31826
490	0	38841	38488	36372	43443
491	0	28463	25622	35615	33371
492	0	44391	30483	38354	25129
493	0	26325	39485	37639	34616
494	0	25440	34572	34240	44012
495	0	26492	36725	26425	31675
496	0	36209	41221	27701	35592
497	0	28053	44533	28252	39865
498	0	42125	35179	25001	39314
499	0	25575	42720	38044	35231
500	0	27236	25733	35075	38200
501	0	33659	43469	36312	35283
502	0	29496	36662	41683	31819
503	0	41403	35236	41063	40814
504	0	42643	33977	32683	43573
505	0	25037	36524	42503	28001
506	0	26398	34278	29880	35215
507	0	41898	31662	27320	44492
508	0	35960	39776	35663	40328
509	0	42914	29785	27386	44011
510	0	42231	32693	44540	43931
511	0	32342	26992	27658	41080
512	0	37306	28105	38781	40202
513	0	28632	37325	32953	30690
514	0	42922	30828	38377	28865
515	0	25738	25692	31347	25713
516	0	36407	32534	34478	27213
517	0	30017	40287	25844	44639
518	0	30630	38086	40754	32872
519	0	34543	36578	36296	43496
520	0	30571	30241	30153	38009
521	0	32985	44738	44401	32673
522	0	27976	44664	41854	43142
523	0	28939	30567	43207	40160
524	0	34297	28131	38772	35635
525	0	31603	32374	41608	44810
526	0	26722	39580	35547	42643
527	0	44761	34345	34567	25384
528	0	36614	38534	32754	33990
529	0	26837	29768	39111	40420
530	0	30305	26423	31485	36735
531	0	27348	42139	35173	31866
532	0	42307	41597	44555	25436
533	0	35212	37141	28058	44646
534	0	34796	37345	33186	39336
535	0	29727	28549	26901	26461
536	0	30004	31775	43665	33281
537	0	28560	27961	34519	33245
538	0	36591	32310	36792	43779
539	0	41867	30629	44332	41646
540	0	43388	40222	28228	35164
541	0	28312	25762	32237	28899
542	0	28006	29663	33447	40780
543	0	29697	29831	33343	25304
544	0	32437	27674	40706	26238
545	0	26176	30547	41213	29333
546	0	36359	36292	36880	36902
547	0	35487	34357	31360	44186
548	0	39070	29504	34722	38914
549	0	25829	33505	41838	41368
550	0	38968	38844	29341	32237
551	0	32456	27841	40904	36299
552	0	39952	33016	43836	29944
553	0	40244	31619	44458	25061
554	0	42927	38020	26052	34434
555	0	26269	44580	30698	30212
556	0	26639	34211	41771	38482
557	0	41731	29267	44031	33577
558	0	40739	32070	28495	34481
559	0	29913	27462	36665	25261
560	0	39641	33105	35548	43555
561	0	37260	31929	30210	44021
562	0	29241	40611	36056	28441
563	0	27885	34147	39960	25370
564	0	36069	31770	30883	37670
565	0	40546	31027	33018	30011
566	0	32904	36750	36475	34127
567	0	40270	41135	32316	30356
568	0	38362	31567	30435	33812
569	0	30934	26811	25518	41902
570	0	35996	36444	28305	30896
571	0	32555	43514	27599	30241
572	0	25215	38931	34002	33137
573	0	37946	36562	42453	39041
574	0	26491	28906	43988	36549
575	0	44120	38232	36418	28752
576	0	41477	38638	32985	28415
577	0	40824	40268	30678	40958
578	0	34293	26048	43203	34978
579	0	27202	29731	30951	39775
580	0	37819	38598	29828	43909
581	0	41434	37688	31862	30298
582	0	43541	30464	36586	38309
583	0	42969	40153	31918	38190
584	0	33232	41509	25211	28538
585	0	35820	38089	25474	41855
586	0	25637	40852	33900	42660
587	0	36269	35831	42440	29344
588	0	41472	44738	41632	37383
589	0	33768	33324	43081	35722
590	0	36346	40998	31467	38088
591	0	38191	31545	34497	27779
592	0	31925	28820	44287	29727
593	0	27572	36283	29567	26436
594	0	43246	25321	40659	43961
595	0	26536	32296	28710	33179
596	0	38817	35892	39876	35797
597	0	43799	44776	44606	33415
598	0	38555	36689	34161	31508
599	0	28631	44080	44578	30130
600	0	36345	40495	43156	31849
601	0	40103	37639	39346	25415
602	0	39672	30237	40020	31476
603	0	40609	43079	38611	25215
604	0	36729	29262	37811	29254
605	0	28063	30677	30458	40189
606	0	37681	31302	39668	29204
607	0	42732	27188	25936	31895
608	0	27295	39355	27844	36397
609	0	32184	37982	37023	28149
610	0	44719	32105	36192	25444
611	0	26415	31453	33326	37935
612	0	38893	32593	30680	32550
613	0	28888	40371	44772	33073
614	0	39012	26183	44806	27932
615	0	38552	33797	39157	38060
616	0	31524	36993	25207	40986
617	0	42897	25770	33817	38719
618	0	26459	40573	32003	44445
619	0	36005	25521	27522	39871
620	0	41330	30429	43653	33604
621	0	38130	26823	29688	36967
622	0	27085	28165	35425	34871
623	0	32444	44996	25598	27686
624	0	43170	31160	39999	34513
625	0	44376	28311	33293	39658
626	0	41702	34173	26895	38285
627	0	32189	30376	42838	26685
628	0	42448	40601	26196	31674
629	0	36904	37477	29367	37161
630	0	26343	36351	31913	30142
631	0	42402	35151	41912	36803
632	0	28708	25137	25519	33510
633	0	41597	37743	27714	44998
634	0	29612	25581	29934	36589
635	0	27689	42346	37381	30821
636	0	38265	28602	25718	29018
637	0	37958	31149	44410	29520
638	0	34574	36321	31649	25766
639	0	29206	31437	41487	32577
640	0	41600	40539	30045	26630
641	0	44104	35280	34279	38235
642	0	39552	29135	31936	36425
643	0	40264	34420	39697	32992
644	0	36692	44403	31642	31463
645	0	41953	43751	27509	39741
646	0	28179	34082	42371	44358
647	0	26517	31128	33356	25730
648	0	26353	32780	28826	43132
649	0	27946	27095	27552	40598
650	0	32277	44807	34600	42181
651	0	30772	44205	29932	39440
652	0	31236	38702	34550	28497
653	0	42198	31783	41849	28868
654	0	33958	36855	42493	44465
655	0	40325	39330	37056	36938
656	0	41882	32152	44906	33747
657	0	30184	34243	25526	28017
658	0	33915	41025	37126	42988
659	0	28794	40733	38642	26157
660	0	39306	29550	26749	44421
661	0	38747	42459	43016	25885
662	0	37555	30332	38152	37227
663	0	30486	27081	42371	37163
664	0	39277	30199	26868	36618
665	0	44676	44615	42881	41111
666	0	27770	34433	25043	30194
667	0	25665	40623	31656	27817
668	0	40037	34341	27496	32974
669	0	35139	41969	41005	38403
670	0	38771	41556	33379	40349
671	0	35205	33441	41825	26801
672	0	38323	30048	32095	32319
673	0	25967	29554	36873	44587
674	0	39877	26551	32914	38104
675	0	33954	29455	32257	33816
676	0	29693	32678	38686	32604
677	0	33462	37537	26936	36455
678	0	25982	41542	41858	43759
679	0	34298	30704	31470	44720
680	0	41823	25784	27763	30347
681	0	40030	35358	32838	30235
682	0	30131	43748	31799	34554
683	0	28571	35042	25499	28012
684	0	35522	39348	33890	27611
685	0	25507	29198	33299	29179
686	0	39343	38884	39722	35808
687	0	26708	39161	37781	41896
688	0	28470	38227	44073	30576
689	0	34545	42522	44040	27449
690	0	38602	34985	39062	39044
691	0	42407	40668	29199	36796
692	0	26948	27314	32402	32005
693	0	29022	30619	39303	44072
694	0	36217	40621	36448	44176
695	0	43150	42620	31086	38948
696	0	29170	41557	28918	28991
697	0	30354	43899	31354	44643
698	0	37291	42465	31925	35188
699	0	39010	41995	41022	34057
700	0	42248	39056	28518	37784
701	0	43156	33072	28100	29216
702	0	44930	28734	42989	34869
703	0	31810	31074	41753	35148
704	0	41625	36296	42186	39488
705	0	36939	30453	34363	32542
706	0	42685	42141	34924	39477
707	0	37463	43309	32043	32495
708	0	40141	40959	41223	37136
709	0	27887	36464	42228	29042
710	0	33242	30392	25085	38943
711	0	32546	44112	34537	28548
712	0	25078	42107	28309	31637
713	0	39580	35281	29236	28720
714	0	35682	39756	32358	44814
715	0	31655	30461	26126	41795
716	0	28799	40501	40934	35798
717	0	33401	34850	32894	34269
718	0	40552	39560	40411	37496
719	0	41683	27995	43256	36761
720	0	42114	29225	42099	34667
721	0	33078	34643	40221	40248
722	0	44783	26935	31189	31983
723	0	43901	34212	32463	25156
724	0	33939	32278	38367	43428
725	0	33587	44826	42217	30940
726	0	41756	34237	26508	27547
727	0	32391	41692	26601	40805
728	0	38050	32674	26530	37819
729	0	33832	29261	27531	25373
730	0	31316	35483	33211	29375
731	0	36777	29591	28518	40657
732	0	38480	32887	34796	35627
733	0	30927	25785	33440	38912
734	0	29823	30848	34656	41446
735	0	44890	29110	33359	27267
736	0	39826	31168	34442	37621
737	0	30357	36549	34616	40061
738	0	38266	29837	26193	43521
739	0	25243	42367	25270	27526
740	0	26587	34006	32255	32307
741	0	40194	29502	26149	40371
742	0	31980	27990	27615	32065
743	0	29959	44340	36005	26476
744	0	31407	32262	34953	33064
745	0	25046	32765	39918	39821
746	0	33086	36784	31105	37144
747	0	43653	42364	35755	33190
748	0	29057	39502	39907	41630
749	0	30719	36731	42141	35290
750	0	32360	44625	41111	28129
751	0	40260	25744	25396	32507
752	0	26607	35227	44533	28377
753	0	32792	32110	32983	37407
754	0	34183	31185	42457	31578
755	0	41823	43616	32485	28604
756	0	33095	33292	32044	29785
757	0	26925	26071	43922	35236
758	0	30549	34189	31072	32686
759	0	29218	33710	44236	37378
760	0	31761	43615	41471	34276
761	0	37260	40769	42998	31430
762	0	33911	30858	31880	25806
763	0	30141	37927	33332	38369
764	0	29600	35062	31241	26159
765	0	30966	34235	31404	25753
766	0	26245	35481	28965	25784
767	0	26615	39287	44299	28638
768	0	27297	43813	27985	40734
769	0	34110	41767	37144	25397
770	0	31427	43161	42670	32764
771	0	38198	43480	28845	35967
772	0	34788	42138	27452	29655
773	0	40740	28683	30090	40048
774	0	32804	27362	40973	38541
775	0	28386	26228	38024	42291
776	0	37530	34448	37802	28853
777	0	25401	39201	44627	40573
778	0	29128	29019	40131	32222
779	0	35828	27157	40432	27265
780	0	40870	31451	43206	33346
781	0	41093	42409	44180	41225
782	0	33482	29005	33772	40239
783	0	25315	44166	44717	44409
784	0	29912	40798	26221	42714
785	0	43464	32063	32607	29838
786	0	25116	42365	28379	30699
787	0	31570	43532	33407	32227
788	0	41165	42503	34125	42177
789	0	36597	34613	25252	27526
790	0	37102	42399	42655	29098
791	0	38663	39598	31454	29138
792	0	27282	31474	28695	27733
793	0	36357	44734	42393	34853
794	0	34316	39522	34792	26294
795	0	39042	32761	40675	26616
796	0	37838	33426	31062	40823
797	0	26527	42821	41088	26109
798	0	38591	33115	36766	38174
799	0	40722	43131	29899	27388
800	0	44556	34404	28462	36313
801	0	38377	37462	32756	43513
802	0	40201	39900	28241	33454
803	0	43143	26363	29515	26833
804	0	36160	35342	36015	28599
805	0	36139	33915	39816	32019
806	0	33669	35371	27281	38711
807	0	33540	36293	28806	33697
808	0	33616	29811	33987	32955
809	0	44307	27722	29827	38844
810	0	27689	29817	42447	25253
811	0	41436	36252	31992	27195
812	0	31032	44908	31428	28255
813	0	31007	39388	34005	33377
814	0	44547	43980	35377	27018
815	0	38028	43950	26802	29379
816	0	27647	26085	35445	39690
817	0	38726	32013	44925	27424
818	0	37332	42156	28234	26261
819	0	39810	37317	33368	43986
820	0	34861	43647	28539	34895
821	0	34929	37935	37519	38387
822	0	33174	44377	44083	30311
823	0	28834	26660	37374	35946
824	0	35474	28322	33109	32939
825	0	27695	43079	31319	33623
826	0	28906	39813	38619	44082
827	0	36881	36056	43620	25617
828	0	30575	28306	25992	39941
829	0	25220	37331	35095	29165
830	0	30507	37104	29783	35544
831	0	30677	35067	26524	40601
832	0	29519	33242	26723	28033
833	0	42437	33144	42839	27677
834	0	43815	44937	34918	42581
835	0	41554	40173	42658	32380
836	0	28397	27864	44707	37121
837	0	42690	42571	41841	42727
838	0	36329	41976	28003	41825
839	0	32948	26108	37642	43839
840	0	44427	25557	42260	39271
841	0	26730	26196	26194	38327
842	0	30574	26086	25892	33849
843	0	42027	27345	36213	32904
844	0	44852	44655	40037	37123
845	0	32364	43649	39997	28023
846	0	41375	32190	32926	38175
847	0	30458	28426	25303	40065
848	0	28547	32267	31269	44814
849	0	29477	29533	41515	34437
850	0	30888	27596	27705	36683
851	0	38650	25375	41527	34077
852	0	39979	39926	33835	40050
853	0	35103	26216	34603	25352
854	0	31595	33674	25181	42087
855	0	31935	34852	31663	25087
856	0	42641	43437	43689	35977
857	0	44060	31108	32754	31728
858	0	38364	38095	39324	43996
859	0	32275	31204	38587	35524
860	0	28987	29926	35046	25576
861	0	38789	40660	36109	43614
862	0	26824	41175	43466	33923
863	0	39574	33707	28039	25729
864	0	44590	30575	30451	39695
865	0	25817	38289	41583	44132
866	0	25570	26700	25146	36333
867	0	26956	33478	29106	40979
868	0	37086	36829	36929	28109
869	0	35649	25771	38825	26306
870	0	38734	40545	33884	39161
871	0	36483	39223	41990	34059
872	0	30544	36485	38419	36503
873	0	29470	33190	43482	33813
874	0	28967	31150	36470	44960
875	0	28448	30245	35777	34122
876	0	43170	41345	36842	30035
877	0	37008	39276	25967	30303
878	0	33369	34199	25136	30875
879	0	40123	27420	43743	42348
880	0	28026	33424	37399	38545
881	0	35779	32117	25252	43994
882	0	27133	39505	26223	43343
883	0	37553	36992	31578	39986
884	0	28816	30774	30454	36468
885	0	28151	44154	33615	30182
886	0	29790	26532	42038	25895
887	0	30161	42928	33962	27141
888	0	31871	36388	33341	34310
889	0	30614	42263	27719	37697
890	0	29576	34957	38330	28534
891	0	29306	44294	35210	30158
892	0	30151	27910	31615	32914
893	0	43163	28435	35093	43096
894	0	41705	29791	35545	39438
895	0	38344	41682	29273	42633
896	0	32915	42325	31630	30467
897	0	31722	27580	37293	41381
898	0	25011	38095	44215	33754
899	0	35656	33121	40186	32375
900	0	42480	33117	30752	27114
901	0	26503	34659	25684	36314
902	0	26429	32898	32490	35353
903	0	44743	43373	43700	40887
904	0	35644	38539	42624	37831
905	0	33788	34086	25002	25087
906	0	36672	39737	32888	38914
907	0	30245	35259	28681	35026
908	0	34431	32783	41827	29607
909	0	41419	27617	44176	26177
910	0	32761	38277	28918	43652
911	0	28954	30961	41953	28431
912	0	40328	35283	27857	34950
913	0	32225	29330	31151	29534
914	0	31908	28252	32906	41437
915	0	34766	36140	40161	33693
916	0	44245	30969	30895	35996
917	0	30921	35130	39521	33800
918	0	28717	32147	41903	42491
919	0	30137	36792	41482	37445
920	0	26297	38898	32626	33524
921	0	33687	25838	27746	33577
922	0	33260	35138	42684	39584
923	0	34069	26974	25191	32679
924	0	38457	43765	40066	38137
925	0	40310	38020	32032	27734
926	0	30150	39908	30916	32815
927	0	36249	30911	42050	41018
928	0	28189	42508	36372	28274
929	0	41074	28810	29204	29443
930	0	25125	35672	29822	31947
931	0	34023	28620	41933	31141
932	0	30381	27462	44794	39718
933	0	36498	26506	40113	25897
934	0	25741	37800	29119	25376
935	0	28020	30986	27885	30575
936	0	36652	30433	31153	41551
937	0	40494	36817	31832	26526
938	0	33870	31804	27032	43175
939	0	33129	33440	39473	35010
940	0	39072	42075	35860	26039
941	0	44242	40813	40648	31737
942	0	26888	34005	40983	41409
943	0	32995	41844	26250	26124
944	0	42762	41094	36898	30737
945	0	41616	38836	30169	39784
946	0	31225	40909	28625	39205
947	0	42429	32866	44538	25489
948	0	36381	39428	44961	28745
949	0	42485	43011	32248	40334
950	0	44423	39984	37956	29154
951	0	29244	39876	25616	33088
952	0	29611	41127	27714	35336
953	0	34528	39120	25951	36292
954	0	42147	34067	35995	26177
955	0	25104	39919	36098	29210
956	0	26458	33377	30874	30831
957	0	28417	44782	25795	41469
958	0	32788	31052	40255	42420
959	0	26965	36367	35597	26270
960	0	36975	41758	42447	36635
961	0	42639	28882	31061	43364
962	0	29619	38765	26332	34820
963	0	42719	27848	40122	27083
964	0	27059	33013	35562	31533
965	0	25169	33169	35231	36021
966	0	40358	38358	38203	25997
967	0	26144	37959	29805	31680
968	0	40104	41196	33780	28562
969	0	35219	28468	31609	36505
970	0	43528	38574	42983	42989
971	0	28078	40441	30695	33059
972	0	29591	44067	43556	36889
973	0	35258	32682	34581	40746
974	0	28240	41905	43715	28933
975	0	32039	31056	30712	27442
976	0	39873	33116	34922	32471
977	0	27725	39092	29858	37581
978	0	42165	25372	27067	43684
979	0	37951	42728	42161	34544
980	0	42017	27077	42131	27254
981	0	33692	30497	28088	35960
982	0	35328	27962	34507	36240
983	0	32803	44646	40969	39116
984	0	40785	32112	25918	35172
985	0	40350	35842	28975	43362
986	0	32199	34975	37335	28853
987	0	38229	25008	43732	27380
988	0	32266	29790	38480	36122
989	0	34328	29198	30547	36627
990	0	29887	32205	36833	34757
991	0	37649	44806	33584	27655
992	0	41748	31036	37634	40112
993	0	41550	35015	29941	43269
994	0	42950	37321	38231	27229
995	0	25314	43354	27436	29574
996	0	43912	36168	37106	38021
997	0	37466	42351	43772	38887
998	0	28321	32856	36872	32076
999	0	29851	27199	31375	44353
1000	0	32449	25856	34727	31754
1001	0	43331	43363	36184	29416
1002	0	26530	27443	27478	26199
1003	0	25576	39977	26806	35956
1004	0	37332	28149	44772	34008
1005	0	25846	29748	32756	26319
1006	0	42408	39047	36484	35125
1007	0	44018	25136	36633	26688
1008	0	29483	26689	32672	39128
1009	0	27817	30278	40619	25513
1010	0	44774	25911	41492	26596
1011	0	30319	36310	28726	42522
1012	0	32134	30441	30634	42666
1013	0	39941	44310	39184	32033
1014	0	37335	43079	44814	25460
1015	0	30809	33840	27049	35480
1016	0	32520	25832	29964	27022
1017	0	38475	38644	28433	39273
1018	0	30118	44549	33372	31690
1019	0	33535	29785	34507	26747
1020	0	26137	44441	44703	30528
1021	0	41280	32269	44340	26724
1022	0	33843	27016	44620	36212
1023	0	41120	25419	35174	35298
1024	0	36838	31294	29542	41713
1025	0	33916	26614	31543	39735
1026	0	31780	37839	38490	26501
1027	0	44469	27756	44933	27698
1028	0	41881	32192	28442	38822
1029	0	30139	28657	44306	44409
1030	0	37763	38081	44902	27899
1031	0	29300	38070	26579	30793
1032	0	40628	27070	42860	28205
1033	0	25816	40210	31639	38873
1034	0	30665	26040	25098	42984
1035	0	30163	39350	28735	39131
1036	0	28456	35008	30661	36158
1037	0	37628	28688	35336	31217
1038	0	32499	42373	39410	38082
1039	0	40081	36953	31431	25153
1040	0	40229	42253	26658	29793
1041	0	39546	43153	35933	43260
1042	0	42998	27059	33279	43453
1043	0	38129	38579	29919	38958
1044	0	34420	37530	31556	34499
1045	0	29655	28860	31727	35633
1046	0	31119	28287	36348	36357
1047	0	34054	25463	38616	32309
1048	0	31482	39057	43088	27152
1049	0	35758	30845	32287	27948
1050	0	29352	37707	39335	40435
1051	0	31660	26195	35442	33121
1052	0	41424	26593	43772	32858
1053	0	29808	43994	34077	41219
1054	0	27864	42223	29088	25844
1055	0	36757	29697	30788	25360
1056	0	26280	29812	29273	38889
1057	0	36523	29941	25334	41212
1058	0	38177	32929	34700	40811
1059	0	34706	33319	33952	37334
1060	0	30546	40170	39084	39233
1061	0	28489	25190	38189	33476
1062	0	39851	39123	32184	43568
1063	0	35597	42771	25955	33843
1064	0	41304	35076	25208	39585
1065	0	28781	37965	27262	26585
1066	0	30401	44162	26792	26592
1067	0	43255	26794	37599	41569
1068	0	35045	34880	27827	31402
1069	0	31573	32970	32884	40700
1070	0	29197	34815	27564	39508
1071	0	27101	43662	38576	32688
1072	0	29588	42835	35882	25516
1073	0	43944	37528	43139	27105
1074	0	34525	44078	25534	26084
1075	0	43938	42198	26898	30818
1076	0	33679	34541	27219	32575
1077	0	40383	27398	42869	40391
1078	0	38479	29249	43809	32524
1079	0	41096	41546	40157	43604
1080	0	35134	32631	27957	28749
1081	0	41885	29205	39410	27406
1082	0	32274	35054	42222	28864
1083	0	36122	29543	29867	35039
1084	0	25161	42202	35880	39792
1085	0	35540	32436	35708	33987
1086	0	25200	33508	44754	30359
1087	0	44245	33170	26478	30426
1088	0	33810	39344	34328	32783
1089	0	28376	34340	31169	32865
1090	0	26324	27415	30114	26902
1091	0	35106	37551	43395	25489
1092	0	30529	39005	39600	25802
1093	0	41798	29062	42133	29803
1094	0	40885	43488	37141	39096
1095	0	36933	26933	33527	42722
1096	0	42057	28763	35554	34697
1097	0	37530	37898	36052	27890
1098	0	39235	28097	42988	38476
1099	0	36440	40053	36012	25342
1100	0	25298	29051	38856	40124
1101	0	29073	33236	38359	33402
1102	0	28730	30168	35990	43553
1103	0	44000	40690	38407	26220
1104	0	26844	28429	38268	35712
1105	0	25172	30536	35703	25957
1106	0	36134	33293	29534	29868
1107	0	27765	38971	25763	27386
1108	0	36089	30504	37119	28368
1109	0	27998	34896	37799	25369
1110	0	38245	31971	35352	36254
1111	0	31020	32484	27746	33799
1112	0	39281	33587	38439	29184
1113	0	36548	30711	25816	31074
1114	0	27581	30010	27996	42373
1115	0	43864	35845	39039	41784
1116	0	42535	36562	26429	35481
1117	0	38367	38414	38991	42798
1118	0	28888	26912	39269	44338
1119	0	44956	32326	32911	25958
1120	0	38758	33280	43501	36174
1121	0	30950	40773	26601	32892
1122	0	30014	32775	29634	41180
1123	0	33875	31553	44383	27330
1124	0	27313	31889	31180	41387
1125	0	30375	26708	39487	28217
1126	0	28278	35745	36124	34317
1127	0	31346	41611	44041	28018
1128	0	41701	34320	29806	32585
1129	0	33782	39574	39371	25040
1130	0	43362	39969	43702	42860
1131	0	25460	26603	30979	37658
1132	0	29338	39611	43315	39462
1133	0	42231	25329	25922	25039
1134	0	38212	31558	28303	25555
1135	0	30582	44158	39878	28436
1136	0	35011	28594	36570	43250
1137	0	36164	37174	34508	30857
1138	0	27007	25435	30160	43600
1139	0	28734	25744	42790	42268
1140	0	30512	41194	36830	28761
1141	0	35207	27923	43998	34515
1142	0	44001	37135	44608	39326
1143	0	34333	36884	43254	42600
1144	0	42902	39092	34903	44072
1145	0	30451	34418	26529	39767
1146	0	31832	37076	44456	27591
1147	0	32928	40691	25109	31461
1148	0	25899	43203	35118	44004
1149	0	36297	44788	42816	26700
1150	0	39960	39437	30035	30402
1151	0	36570	30086	40193	38313
1152	0	41933	37340	40282	33603
1153	0	36407	28443	29094	34487
1154	0	25454	41029	37106	32609
1155	0	33732	30283	43733	31701
1156	0	39167	26455	39698	33895
1157	0	30456	31994	29698	38797
1158	0	32859	42218	28760	25421
1159	0	44447	40426	27072	36802
1160	0	41270	32687	35932	43841
1161	0	29234	25011	33520	34293
1162	0	28388	28754	42865	25452
1163	0	26854	27096	43056	35155
1164	0	30269	35562	26049	31055
1165	0	26732	32657	32125	42044
1166	0	25932	33881	39778	29888
1167	0	37228	35565	30070	31159
1168	0	27126	30124	28527	25607
1169	0	43338	44729	41776	40112
1170	0	41949	28321	36505	34783
1171	0	28601	36975	29570	25723
1172	0	26106	28430	39792	30031
1173	0	26308	40564	33742	34305
1174	0	42740	33252	42349	31719
1175	0	26623	39300	30067	29723
1176	0	29037	40401	42988	33232
1177	0	30260	41095	32351	36049
1178	0	26579	36273	33036	30422
1179	0	38762	33348	40072	39149
1180	0	39062	35627	32990	31385
1181	0	44912	39572	28570	43326
1182	0	39569	25339	31653	30468
1183	0	40796	44560	42860	28171
1184	0	35733	32136	31377	34300
1185	0	42806	35179	36228	29397
1186	0	33171	26385	29107	31402
1187	0	39979	41350	39445	26854
1188	0	40348	44929	33777	26577
1189	0	32516	40296	33041	27876
1190	0	44495	39544	35003	43738
1191	0	42091	38670	32694	29613
1192	0	26774	38349	44046	30581
1193	0	34112	25099	37168	43889
1194	0	41496	33064	29840	36997
1195	0	35245	41035	37938	27740
1196	0	32903	36558	27381	26779
1197	0	26743	44466	39104	28493
1198	0	38424	42275	38872	44369
1199	0	36023	29205	39764	31641
1200	0	40202	41896	25980	31910
1201	0	39536	43137	36791	31962
1202	0	30456	39905	27602	35602
1203	0	30480	37920	37352	31503
1204	0	36403	41823	36037	30542
1205	0	29704	31233	40164	34687
1206	0	38202	43001	42112	37641
1207	0	43347	27998	29914	40431
1208	0	39562	25610	42678	37937
1209	0	35784	30922	36913	27907
1210	0	33419	44661	36371	28949
1211	0	27100	32447	28083	41632
1212	0	39652	34254	39434	25875
1213	0	28210	26202	41925	35447
1214	0	27136	38641	25581	26820
1215	0	42456	25105	33719	36493
1216	0	30852	30766	35181	44980
1217	0	32342	25888	28163	32658
1218	0	34428	38903	34722	36179
1219	0	39324	40010	26490	31931
1220	0	41031	29936	38411	39098
1221	0	40623	29391	28142	35133
1222	0	43418	30206	25272	41409
1223	0	38305	26048	44716	32266
1224	0	32470	35470	41621	35021
1225	0	34990	29715	39373	32966
1226	0	26115	31237	44691	29441
1227	0	34702	37146	29985	30579
1228	0	37505	43910	37565	30509
1229	0	31173	44143	44943	40785
1230	0	26555	44521	41013	25809
1231	0	43431	28924	42995	36067
1232	0	25442	43232	42206	36199
1233	0	40843	43312	30500	36770
1234	0	26888	32147	35119	27991
1235	0	40927	35519	41035	34337
1236	0	43359	33761	32314	37138
1237	0	25052	26695	40331	30985
1238	0	43852	41731	31095	41046
1239	0	39528	35117	42511	42674
1240	0	44466	38251	32151	37124
1241	0	35576	31597	36205	36139
1242	0	26721	26850	25433	31495
1243	0	44092	31095	28313	34856
1244	0	30792	25903	33993	36449
1245	0	35860	25402	40241	33985
1246	0	39873	38619	30385	34983
1247	0	43484	30915	32270	38065
1248	0	34219	29107	36058	44974
1249	0	27798	26833	36489	27393
1250	0	27302	42425	33438	25186
1251	0	25101	31096	34728	37058
1252	0	25213	28592	26429	44175
1253	0	31058	35335	34575	36398
1254	0	29490	35926	41637	30555
1255	0	37338	32268	38566	44912
1256	0	27498	25945	34508	39924
1257	0	37752	42385	36762	37274
1258	0	44685	33901	38561	34670
1259	0	35628	26093	25562	31134
1260	0	38216	29245	30927	43059
1261	0	34384	34838	28258	38681
1262	0	25910	42548	40974	27017
1263	0	29764	43917	25773	31376
1264	0	27166	27748	32605	38355
1265	0	27082	43020	37926	27389
1266	0	38842	34794	35946	31377
1267	0	29441	27475	27101	34566
1268	0	34311	25545	44761	39756
1269	0	27466	36409	40440	41866
1270	0	37174	38125	40221	39950
1271	0	40839	28702	29218	40285
1272	0	27664	38606	30505	29695
1273	0	34300	31767	26275	26120
1274	0	40765	36116	35740	26467
1275	0	25940	28371	39702	34140
1276	0	34431	43175	38675	34118
1277	0	43809	34643	41554	43402
1278	0	43876	44644	43455	31971
1279	0	44829	34594	38161	43664
1280	0	41725	31867	44447	28274
1281	0	43502	38426	33479	40952
1282	0	37984	26225	42073	29319
1283	0	27402	25339	29571	25681
1284	0	30976	33532	44278	36796
1285	0	42126	38021	25869	25654
1286	0	35512	38452	28282	25175
1287	0	41011	25322	26568	44194
1288	0	42745	38360	39326	37199
1289	0	36739	33698	44261	37330
1290	0	28914	27879	36236	42994
1291	0	34332	34919	33268	36069
1292	0	41829	31184	39551	40148
1293	0	42001	44097	43347	29173
1294	0	26194	34290	44228	37977
1295	0	43915	43964	35654	36792
1296	0	31499	36441	34997	35371
1297	0	27032	40631	30503	29659
1298	0	34664	30464	26508	27668
1299	0	32959	43283	27914	43358
1300	0	30691	39622	44975	36932
1301	0	26907	33786	29677	32313
1302	0	25600	39421	29632	43047
1303	0	38970	44147	37218	35018
1304	0	43219	40958	40914	43354
1305	0	40343	33523	32309	38002
1306	0	30099	38947	30791	32705
1307	0	25518	33082	40956	44688
1308	0	35308	31682	43679	32934
1309	0	35804	34895	42326	29928
1310	0	30192	30937	27786	31087
1311	0	37861	44082	44484	39196
1312	0	27348	33263	35785	38932
1313	0	35831	36697	35717	30886
1314	0	33350	35315	29030	28578
1315	0	38947	36663	36295	43975
1316	0	29523	28468	35454	32667
1317	0	28562	25736	27315	30939
1318	0	25181	29967	29125	37545
1319	0	36886	31130	35961	43609
1320	0	39803	38769	35353	31620
1321	0	40138	39606	26045	27515
1322	0	27176	43164	42452	39815
1323	0	30313	44249	30694	32454
1324	0	43966	42281	33484	35826
1325	0	36968	29772	25170	39131
1326	0	27100	33044	43441	30274
1327	0	39917	38527	34311	41922
1328	0	43642	40482	41320	35067
1329	0	28871	34345	38731	40191
1330	0	31910	44969	37908	38815
1331	0	40366	30038	43405	40499
1332	0	27589	33972	44494	27270
1333	0	39551	34016	44789	26246
1334	0	35838	29423	39989	43594
1335	0	37845	39254	44959	26946
1336	0	30717	40454	36044	30214
1337	0	31392	37214	43364	40432
1338	0	36472	42226	37610	25427
1339	0	41656	27554	36078	35903
1340	0	35670	27076	31610	26255
1341	0	37544	26782	26922	28230
1342	0	34383	38854	28673	28157
1343	0	37217	27985	31639	37726
1344	0	38005	32152	33399	37261
1345	0	31812	31571	25348	37060
1346	0	33029	25865	27640	33465
1347	0	33789	25105	37661	27709
1348	0	33379	37418	37050	30952
1349	0	28423	34360	40023	40465
1350	0	33605	43778	32565	27949
1351	0	34242	27284	25248	28446
1352	0	43398	33555	35011	41007
1353	0	37243	41404	26770	43668
1354	0	30257	26073	42590	25526
1355	0	40844	37324	43841	44284
1356	0	38012	43054	40410	31837
1357	0	35570	34626	35276	38926
1358	0	35758	32131	32127	43392
1359	0	32828	36056	39020	40747
1360	0	44086	30851	41316	28076
1361	0	29060	27354	33623	43627
1362	0	26613	35066	31844	41621
1363	0	37417	44661	28211	31589
1364	0	30251	36376	29674	42009
1365	0	33988	38139	40928	25852
1366	0	28494	41354	32360	32771
1367	0	32918	44803	36910	28950
1368	0	25871	32540	38820	32525
1369	0	39684	36890	29359	30657
1370	0	32576	39847	26289	39211
1371	0	37762	27489	44185	37085
1372	0	32447	28721	39097	41011
1373	0	34621	37103	29527	39098
1374	0	30912	35753	40462	40066
1375	0	33877	29235	30996	35302
1376	0	42807	30783	41468	30569
1377	0	38197	32169	26309	27711
1378	0	29504	40165	36178	30370
1379	0	43761	39532	26709	31027
1380	0	43048	44886	37133	39728
1381	0	30528	39958	39431	36253
1382	0	34001	25401	36058	35654
1383	0	40134	30130	38674	39626
1384	0	40394	31767	28986	26096
1385	0	29534	43501	39618	28812
1386	0	40053	38610	34780	39271
1387	0	27501	35654	29560	38975
1388	0	42312	38513	32459	34298
1389	0	32082	31583	39628	35799
1390	0	43009	34054	33782	41480
1391	0	25363	33742	36535	26497
1392	0	44139	36477	41581	27439
1393	0	34539	38471	29077	41598
1394	0	34469	38161	27009	42129
1395	0	36449	36879	41153	41939
1396	0	40688	29397	36755	34180
1397	0	40531	30490	39393	31031
1398	0	32761	44364	43300	29463
1399	0	25384	41053	34274	27158
1400	0	27908	39361	35712	43000
1401	0	42601	31080	29055	37242
1402	0	36853	44491	41723	37855
1403	0	34733	34409	42870	38886
1404	0	37243	39621	41074	34213
1405	0	44402	27721	37373	44039
1406	0	35884	39173	41958	44826
1407	0	26645	30159	25878	25915
1408	0	32898	35184	33957	27964
1409	0	35861	34510	44193	39167
1410	0	34128	26105	30824	28980
1411	0	31198	44913	27167	38259
1412	0	37535	27825	25892	36615
1413	0	38819	43077	40325	37681
1414	0	44769	34010	29595	32207
1415	0	33868	41169	30536	30504
1416	0	38532	25979	44034	36006
1417	0	26243	43154	27854	32909
1418	0	28405	35088	35276	41118
1419	0	32798	35599	40599	29729
1420	0	42537	38770	34731	32179
1421	0	28109	25764	25168	35275
1422	0	43015	41462	29138	30942
1423	0	36954	43941	40280	39193
1424	0	42322	26485	38511	36544
1425	0	44253	26619	36642	41012
1426	0	41560	32761	39650	34040
1427	0	28962	26424	33118	27059
1428	0	32244	35325	38408	39660
1429	0	29853	36602	37871	36372
1430	0	30885	29336	31715	40065
1431	0	39742	31946	25174	32440
1432	0	25454	25918	29465	42658
1433	0	26973	32270	40742	42361
1434	0	43370	26627	43687	33358
1435	0	44800	26819	44889	33443
1436	0	37218	39198	30387	27007
1437	0	37622	40931	43204	31989
1438	0	30716	29027	27662	38763
1439	0	31017	27196	33892	42530
1440	0	33610	35150	40846	38530
1441	0	28714	34495	37327	35432
1442	0	27024	40263	35317	41743
1443	0	42940	42114	27926	27332
1444	0	37860	25780	37474	42596
1445	0	29162	38460	36303	32196
1446	0	36451	39307	39631	38831
1447	0	34468	32271	29357	36818
1448	0	29358	33996	32088	44918
1449	0	27432	42389	43330	32152
1450	0	33995	34210	36623	35597
1451	0	43045	27476	36769	35625
1452	0	38828	27172	25951	39767
1453	0	33363	40847	36894	27249
1454	0	43612	41509	25708	32484
1455	0	26798	26140	32195	43102
1456	0	30634	44602	44046	27860
1457	0	34910	27901	33230	27189
1458	0	39050	43649	27233	26748
1459	0	36422	33618	41824	28029
1460	0	42223	32619	33846	34363
1461	0	42972	34169	30906	32051
1462	0	35704	33713	44933	34584
1463	0	27173	43167	28891	31122
1464	0	36750	39549	33382	30956
1465	0	31524	25207	38612	32871
1466	0	40967	25806	36956	31249
1467	0	37239	37159	31453	34514
1468	0	35613	41557	36916	44425
1469	0	32260	43413	27141	42231
1470	0	37570	40791	35339	33383
1471	0	26838	25814	37057	41725
1472	0	38960	29784	34985	38006
1473	0	28962	27225	25508	28968
1474	0	27236	38702	39209	42833
1475	0	30013	25021	38462	26658
1476	0	33758	41226	28433	28057
1477	0	38388	27062	27405	43521
1478	0	25371	37460	34811	31298
1479	0	25690	34646	43125	41382
1480	0	34913	32536	34941	25124
1481	0	33269	41756	39989	33135
1482	0	37786	30415	29634	38052
1483	0	31383	27067	43126	37560
1484	0	43631	27715	31126	30564
1485	0	42305	35634	32381	34112
1486	0	27677	28849	44887	36797
1487	0	38470	42017	31513	35595
1488	0	29210	35706	39449	32458
1489	0	28628	36495	25303	25566
1490	0	25082	40256	37532	32173
1491	0	28207	36328	26038	34712
1492	0	36543	28081	40841	37958
1493	0	38546	34629	31650	32298
1494	0	35852	36434	28862	43455
1495	0	44752	33869	40294	36538
1496	0	31134	37835	37644	31387
1497	0	40363	35256	25018	37353
1498	0	37666	30484	32351	29842
1499	0	30537	42975	31056	43430
1500	0	38079	34391	42165	26177
1501	0	38591	40562	28439	36177
1502	0	39117	25382	38707	25638
1503	0	31975	37237	39807	25045
1504	0	39477	42052	35126	29171
1505	0	43870	38745	29939	40793
1506	0	30449	26443	43538	25478
1507	0	36605	30788	40318	30677
1508	0	43193	41628	35117	30665
1509	0	32660	44708	42738	44000
1510	0	36686	37408	34590	29658
1511	0	34860	32577	25607	26317
1512	0	30211	34915	35379	38147
1513	0	25385	38421	43986	36445
1514	0	32348	42924	33949	41419
1515	0	34272	30150	25667	29114
1516	0	25584	27045	38559	33921
1517	0	32568	30679	31680	35562
1518	0	36035	27734	44948	40729
1519	0	36533	25408	35125	34907
1520	0	31963	42407	31880	32655
1521	0	34141	30185	28501	30766
1522	0	27817	41770	41503	44725
1523	0	32549	39908	41375	34790
1524	0	44686	27782	36768	27439
1525	0	38618	29244	43780	34461
1526	0	28120	39904	44929	30055
1527	0	33618	34796	28537	37230
1528	0	35104	42480	39428	42769
1529	0	36466	33174	42611	27286
1530	0	39818	28158	36128	36725
1531	0	42072	44239	37676	30914
1532	0	44751	44566	40441	32833
1533	0	39750	27255	44560	32328
1534	0	40277	34734	38966	43611
1535	0	38730	38136	37557	41085
1536	0	30740	25533	42843	31027
1537	0	36096	32540	32295	35834
1538	0	44472	26334	27159	33717
1539	0	36104	42216	41758	35715
1540	0	26895	34458	38744	39719
1541	0	34117	44800	26093	25954
1542	0	43107	38941	30816	42609
1543	0	36457	44775	36070	43833
1544	0	40177	44574	38805	32770
1545	0	41300	37712	25176	37934
1546	0	42279	35939	39542	26697
1547	0	41478	40073	41429	39236
1548	0	43329	29794	34613	39835
1549	0	31506	39625	41838	36819
1550	0	32322	41242	30129	41360
1551	0	36143	39694	42334	27180
1552	0	38520	28057	25267	41492
1553	0	37506	26349	43230	26281
1554	0	42243	42945	27500	27258
1555	0	37847	44928	43908	35139
1556	0	32957	28459	30374	41159
1557	0	33276	33419	42140	25034
1558	0	39037	37694	40744	31268
1559	0	39341	26554	28102	25182
1560	0	33866	31452	36294	41444
1561	0	37045	39474	44807	34517
1562	0	34334	28795	31155	25310
1563	0	29175	32554	32317	37263
1564	0	43328	38994	44764	43977
1565	0	35305	31465	30157	28293
1566	0	33410	31540	41774	27130
1567	0	29437	37164	27974	30434
1568	0	25037	32265	29605	28410
1569	0	28284	41399	31773	40000
1570	0	44250	44641	36745	44040
1571	0	33793	40357	43750	32368
1572	0	27646	40505	43413	39160
1573	0	41520	37374	34209	40661
1574	0	42418	32491	27827	37750
1575	0	36228	35489	42004	42188
1576	0	26716	33502	29374	38396
1577	0	44749	38405	28514	26638
1578	0	30232	36601	25345	33464
1579	0	26011	25085	38955	40746
1580	0	36541	35851	26607	30245
1581	0	26760	39359	37523	40320
1582	0	28359	43979	27372	32429
1583	0	30113	40774	30898	38654
1584	0	44645	38592	31959	43532
1585	0	37939	25752	38468	25648
1586	0	38135	38114	29610	32980
1587	0	27954	30449	27813	33658
1588	0	31564	36160	44786	35462
1589	0	40065	43860	39432	27360
1590	0	27549	29228	40463	40980
1591	0	39083	36571	38244	26479
1592	0	44704	40180	35621	28646
1593	0	43454	26826	43601	39006
1594	0	36786	32768	42449	34822
1595	0	35683	31937	42788	44110
1596	0	29210	30425	43894	30634
1597	0	42027	34644	42500	41060
1598	0	27680	30491	33009	40798
1599	0	32156	33423	26693	38472
1600	0	41035	40502	28767	44263
1601	0	31041	37264	28689	32333
1602	0	35058	38721	27482	37355
1603	0	35948	36999	34121	29104
1604	0	29291	28523	40571	25444
1605	0	27156	34110	31934	29876
1606	0	35835	30087	36219	30985
1607	0	32170	44681	33095	28959
1608	0	32134	42947	29742	38798
1609	0	38670	34749	42584	33763
1610	0	34129	39817	25378	35325
1611	0	41838	25399	25625	36230
1612	0	28961	37646	27021	32784
1613	0	34687	34679	25332	31319
1614	0	34705	27281	30276	35216
1615	0	25827	29481	32656	31406
1616	0	40827	42138	36868	37318
1617	0	34904	33220	36267	37084
1618	0	38240	28191	43279	25658
1619	0	35735	43278	29931	25397
1620	0	43169	32096	33614	33559
1621	0	43654	26644	30173	36352
1622	0	43912	33947	25663	32577
1623	0	28636	33603	34263	36211
1624	0	41569	31215	39035	29044
1625	0	31935	37093	31653	31898
1626	0	34023	30608	39839	42278
1627	0	28511	26769	40233	41953
1628	0	34076	25372	28949	37529
1629	0	27941	26645	34683	31263
1630	0	29189	26603	28770	25286
1631	0	34696	37050	44875	44539
1632	0	26202	35510	27848	33206
1633	0	30285	33783	30068	37097
1634	0	30461	25448	43616	28923
1635	0	36250	37570	34952	38145
1636	0	32045	41253	37841	31960
1637	0	36348	31285	35248	40015
1638	0	25824	35696	35461	42706
1639	0	42821	33762	31637	43086
1640	0	32325	42067	29517	29485
1641	0	40375	42967	27930	29591
1642	0	25335	42501	44463	26869
1643	0	36355	28544	31882	43818
1644	0	31007	31512	35179	33788
1645	0	33336	29829	32640	25372
1646	0	31120	37215	28022	38687
1647	0	38720	36573	34835	42525
1648	0	26099	28486	30246	30395
1649	0	35914	27602	34341	42081
1650	0	39830	33145	38277	40491
1651	0	27032	38693	34229	37697
1652	0	43712	30693	44086	27895
1653	0	26263	42381	28155	32598
1654	0	30019	37082	30662	26833
1655	0	30699	25795	25266	25211
1656	0	28350	39116	36380	39502
1657	0	43106	26577	44853	43382
1658	0	40883	40180	41981	31495
1659	0	39042	39463	25197	42753
1660	0	25983	35619	42957	43771
1661	0	30630	32541	35302	40520
1662	0	28734	42075	39756	33984
1663	0	40772	34659	28620	32576
1664	0	30603	43046	37894	29739
1665	0	26751	25785	28228	29070
1666	0	36685	38275	27493	38962
1667	0	39286	28809	30999	36302
1668	0	42023	26538	26949	36265
1669	0	41170	32274	35224	40014
1670	0	28767	44949	32768	25114
1671	0	44124	31245	41266	32092
1672	0	37033	43780	35279	42036
1673	0	37778	28994	41662	35874
1674	0	36817	44169	31307	28656
1675	0	32980	41079	29477	34480
1676	0	38675	39510	33830	30929
1677	0	33587	40101	33756	37854
1678	0	42005	44611	37111	30660
1679	0	39869	25772	28342	35533
1680	0	36236	25882	27381	44484
1681	0	37451	41742	35138	31937
1682	0	38281	43627	43899	42015
1683	0	36835	27707	32492	43925
1684	0	43680	35086	26254	37863
1685	0	42178	25309	32884	29500
1686	0	37340	44840	41940	39946
1687	0	44502	37254	26022	35618
1688	0	41053	31094	40989	44917
1689	0	35720	25563	37573	31734
1690	0	43552	31883	41149	29598
1691	0	28599	27689	28724	36366
1692	0	33420	30579	44359	25648
1693	0	34496	33086	39531	27784
1694	0	37467	42129	44043	37389
1695	0	44302	37103	27971	41073
1696	0	43120	25625	38028	29557
1697	0	44265	29770	41657	35557
1698	0	30884	26373	44144	28689
1699	0	44678	25709	43811	28912
1700	0	31402	38996	44461	33827
1701	0	37880	35391	27297	31532
1702	0	41833	31080	30254	32699
1703	0	28169	29573	42277	25285
1704	0	39917	30267	27054	37012
1705	0	44126	26945	43558	40737
1706	0	27132	38539	32397	41913
1707	0	44802	35600	32246	27202
1708	0	35025	42222	39358	38065
1709	0	37920	33453	39887	41161
1710	0	41877	34978	44854	28353
1711	0	37905	26478	27321	42550
1712	0	34328	26175	30140	44730
1713	0	27882	31091	26172	42605
1714	0	44114	28735	28284	36896
1715	0	42627	32326	44772	33765
1716	0	26892	37143	25451	33777
1717	0	40054	31089	38998	29122
1718	0	40325	26123	26144	40813
1719	0	29587	41697	36476	35343
1720	0	27165	39139	29523	35000
1721	0	26200	31474	39308	32021
1722	0	32350	36227	32121	31052
1723	0	40219	25241	29611	37115
1724	0	41302	41463	28832	41505
1725	0	44115	42733	33763	28463
1726	0	37345	44808	28357	38817
1727	0	27605	25852	32535	41929
1728	0	35958	40877	38125	32101
1729	0	44084	38575	38043	32283
1730	0	42237	33557	37561	32080
1731	0	30029	30267	38725	43775
1732	0	34659	43302	37131	44883
1733	0	32984	42913	44292	33247
1734	0	39646	39689	43319	41903
1735	0	28110	28969	27548	43613
1736	0	40850	27169	33403	44369
1737	0	33301	30650	44674	37144
1738	0	37222	34568	42635	29736
1739	0	38121	41108	31267	42553
1740	0	25228	27150	28820	41823
1741	0	30113	41458	40360	27175
1742	0	25891	35349	25702	27880
1743	0	29364	27011	42154	34532
1744	0	32062	26600	34439	25040
1745	0	34695	28265	28717	27656
1746	0	38458	32369	41394	33374
1747	0	31925	34061	37382	40947
1748	0	39092	39891	25437	27663
1749	0	42942	25543	43058	30158
1750	0	40716	43747	34954	28381
1751	0	32282	29181	42375	30729
1752	0	28954	35759	43381	40698
1753	0	27822	32616	27485	38037
1754	0	35963	43342	43254	40998
1755	0	37865	44810	30219	42061
1756	0	27167	32512	28065	25656
1757	0	25954	41989	27244	41754
1758	0	43958	42005	37029	28455
1759	0	38477	43534	30060	30943
1760	0	27574	35279	40488	25507
1761	0	36909	41659	42734	39121
1762	0	35646	35640	37796	40610
1763	0	28583	39530	29740	43837
1764	0	30768	32187	38221	42151
1765	0	43500	43363	35965	44307
1766	0	44770	32364	43158	43246
1767	0	28852	37501	31492	34807
1768	0	42868	34782	43589	32630
1769	0	41627	36130	30773	34149
1770	0	36299	38170	37250	26149
1771	0	28989	43623	33875	29618
1772	0	25297	37017	37978	36735
1773	0	28715	31651	27385	41248
1774	0	25373	29286	29159	27943
1775	0	35219	31510	33280	35783
1776	0	37655	25514	26838	29882
1777	0	44445	36210	33604	28786
1778	0	35925	39942	43092	34055
1779	0	37546	25403	39584	43207
1780	0	37594	32575	34831	25841
1781	0	43302	38629	37093	31112
1782	0	41900	34973	26971	28202
1783	0	25675	44239	27694	38453
1784	0	42017	31914	44427	31516
1785	0	44627	32790	42823	32882
1786	0	44511	37743	27131	31844
1787	0	35808	31869	27935	33071
1788	0	29297	29591	44147	26831
1789	0	30952	31870	41021	41968
1790	0	27572	43750	36893	44354
1791	0	42962	33010	44580	26562
1792	0	25663	40596	43521	38623
1793	0	27200	31982	42109	41980
1794	0	37792	37871	36050	25320
1795	0	41225	39808	43955	27642
1796	0	29521	38300	32645	43098
1797	0	38458	30492	26433	32443
1798	0	41083	31327	42690	42671
1799	0	38313	28688	27520	32927
1800	0	30419	26606	33095	29589
1801	0	41862	41462	39866	43472
1802	0	40089	42859	40950	31010
1803	0	26820	33219	25745	35852
1804	0	30940	30968	36249	29753
1805	0	27191	31298	36901	41630
1806	0	31260	28229	35344	41134
1807	0	39522	38474	34825	30494
1808	0	36489	30672	37988	38861
1809	0	30740	26164	41196	44156
1810	0	40358	43737	28755	29017
1811	0	30441	26872	37880	31841
1812	0	30512	34359	35400	36878
1813	0	29669	38697	44659	32202
1814	0	25250	42870	30762	42110
1815	0	43155	44845	28050	36933
1816	0	38218	31258	27771	37281
1817	0	35994	38248	39755	25280
1818	0	40724	36905	35807	43843
1819	0	40332	39046	44124	28994
1820	0	40640	38432	38260	33528
1821	0	40919	35660	27886	25913
1822	0	39410	32851	44384	30664
1823	0	41027	39845	33240	26770
1824	0	39207	33920	29387	28164
1825	0	33529	36183	29893	27847
1826	0	32076	33978	36473	35734
1827	0	26284	31964	36439	32420
1828	0	44554	28056	32315	31720
1829	0	31803	39336	29581	44334
1830	0	38717	42933	30757	27076
1831	0	39952	35438	42047	34627
1832	0	39828	31295	44314	28575
1833	0	33744	30095	30158	40324
1834	0	33636	36083	36367	27484
1835	0	33490	35708	25588	26275
1836	0	44349	29396	35387	25685
1837	0	39153	27276	37693	43376
1838	0	30015	26836	29791	25724
1839	0	38438	39362	41087	44165
1840	0	39301	41580	29881	35450
1841	0	43393	39106	33714	30684
1842	0	44843	32322	33710	38759
1843	0	43232	36444	41881	38204
1844	0	41576	30250	35633	39708
1845	0	33017	33676	44427	25922
1846	0	31634	34599	44161	30926
1847	0	25539	31791	37469	41487
1848	0	38349	33324	29172	26045
1849	0	30002	31521	38436	25323
1850	0	40686	36397	31191	36193
1851	0	30424	29189	32542	36454
1852	0	25086	34767	43270	39949
1853	0	27020	29571	26160	37898
1854	0	31855	28484	31797	26439
1855	0	39392	38917	43075	38003
1856	0	38179	28973	31394	30555
1857	0	26206	37697	34906	28991
1858	0	39267	43627	36354	25409
1859	0	44081	40326	30073	30194
1860	0	31201	41087	40800	30075
1861	0	25703	31248	31275	28701
1862	0	34550	44988	36523	27702
1863	0	26406	35948	26131	27810
1864	0	38913	42675	40895	37484
1865	0	29132	35962	38186	40021
1866	0	27871	28796	35781	25700
1867	0	28659	32007	27744	35749
1868	0	44426	38411	30915	44540
1869	0	36564	27408	26025	29848
1870	0	33565	30338	28459	38650
1871	0	33343	28633	44226	34100
1872	0	38520	44994	28744	30965
1873	0	37116	43154	26889	30307
1874	0	33284	32248	32638	32670
1875	0	37393	32678	41937	31743
1876	0	41074	28485	37771	29701
1877	0	39760	36169	26266	31872
1878	0	44884	44661	29812	31583
1879	0	44184	30218	29365	30010
1880	0	31447	34833	33953	42755
1881	0	25601	28967	44365	25718
1882	0	41710	40487	31256	43346
1883	0	34229	27135	33756	40664
1884	0	29453	43400	34559	41628
1885	0	26248	33193	31663	37742
1886	0	32011	38459	25761	36473
1887	0	25845	33217	42667	37352
1888	0	29462	39249	30011	34480
1889	0	34086	31969	40992	35346
1890	0	42254	44510	35036	41176
1891	0	32220	27527	36196	26264
1892	0	43687	36989	27050	30814
1893	0	25219	30120	40885	42828
1894	0	25026	26930	37970	28331
1895	0	39277	35519	27937	37763
1896	0	36780	44624	35273	41177
1897	0	41021	40843	40152	28067
1898	0	40829	28644	28623	26406
1899	0	43390	32976	44447	44457
1900	0	33983	44635	35687	43367
1901	0	37156	41159	39196	35974
1902	0	35458	40769	26428	41648
1903	0	30428	29060	36069	36060
1904	0	29301	34620	44072	31819
1905	0	40003	31467	44547	29261
1906	0	25620	37495	30501	43429
1907	0	34255	27665	35191	34656
1908	0	37479	40004	43030	38720
1909	0	42203	33881	31004	44724
1910	0	27568	35815	40271	30927
1911	0	38942	34349	40727	40634
1912	0	37513	44448	43972	26198
1913	0	28696	44284	32961	40634
1914	0	28171	27735	41174	32781
1915	0	39425	39216	36895	39013
1916	0	34186	36821	31531	27979
1917	0	26049	29037	25706	34777
1918	0	39063	25287	42381	27497
1919	0	27499	28854	43151	28778
1920	0	33282	37095	42666	37112
1921	0	30083	39209	33159	38016
1922	0	31736	37498	41679	35080
1923	0	38324	36520	27063	29524
1924	0	40978	40229	26755	33010
1925	0	36941	26807	27055	32465
1926	0	38166	31104	27433	36867
1927	0	33648	40004	25520	30313
1928	0	29769	43408	38596	27101
1929	0	37181	30726	34145	44006
1930	0	26231	43743	28238	37982
1931	0	38532	25618	29355	32406
1932	0	41986	31530	43565	31296
1933	0	43607	31093	43696	36475
1934	0	32149	36206	41146	39436
1935	0	38152	28367	44449	30617
1936	0	40912	31709	26280	41689
1937	0	35942	34837	25017	33026
1938	0	36935	34991	37954	40269
1939	0	44849	44481	44275	34342
1940	0	44628	36504	37174	29286
1941	0	35232	43136	28541	30110
1942	0	26735	26085	40042	38333
1943	0	40765	43607	41242	32409
1944	0	30620	38506	40444	33881
1945	0	34628	28452	25564	28747
1946	0	35687	33505	35510	28800
1947	0	43396	34607	31431	35082
1948	0	43808	30024	38763	37649
1949	0	34904	33512	42949	28759
1950	0	25487	25522	35849	37934
1951	0	26173	43553	39346	39157
1952	0	33288	29258	28521	25742
1953	0	34782	37585	44353	39770
1954	0	41331	43588	42663	37072
1955	0	27184	33376	25379	25058
1956	0	36149	31308	33728	34838
1957	0	25791	44092	37510	31844
1958	0	44102	33965	33471	41325
1959	0	39472	34971	32078	36655
1960	0	32757	33992	38442	37574
1961	0	36851	37042	36559	42402
1962	0	28507	35394	44192	37473
1963	0	28692	32680	37303	33732
1964	0	44516	38051	36101	26297
1965	0	36163	43672	36813	26668
1966	0	38086	27263	34949	43341
1967	0	33617	37477	32908	28846
1968	0	41063	43098	35022	28502
1969	0	41872	31521	26075	40944
1970	0	26306	27349	36439	43684
1971	0	43721	42868	31021	36790
1972	0	44067	37655	31220	26857
1973	0	44891	31767	42550	39567
1974	0	37097	26004	27462	40756
1975	0	32106	38089	36130	30893
1976	0	25149	40965	40575	36906
1977	0	40754	43491	40339	41643
1978	0	41867	40878	36309	41602
1979	0	44050	33656	25014	33371
1980	0	44996	39053	31263	44901
1981	0	31670	38909	28621	44695
1982	0	39444	35984	43390	25114
1983	0	42632	44769	43765	41587
1984	0	30469	34345	32493	40706
1985	0	26390	29203	40590	28503
1986	0	26693	29516	39377	43837
1987	0	33144	38844	35186	42165
1988	0	33287	40632	37271	30006
1989	0	39313	34634	41599	27297
1990	0	36726	44551	37021	25901
1991	0	26937	38905	26198	30212
1992	0	37998	31101	36537	37235
1993	0	41798	43453	37474	33699
1994	0	26831	37001	42478	33968
1995	0	25710	37107	37981	44351
1996	0	40568	33906	33053	28824
1997	0	27033	33391	38408	35163
1998	0	34942	43268	43886	39946
1999	0	38578	42016	33305	25857
2000	0	34861	42434	36337	35779
2001	0	40342	25427	30124	28872
2002	0	43529	36885	32366	39622
2003	0	40931	29195	27877	39601
2004	0	32539	44372	27349	35886
2005	0	34989	37133	42890	33014
2006	0	35875	26698	29030	41366
2007	0	38302	30305	28370	29000
2008	0	32306	43312	33432	31054
2009	0	31936	35518	30208	36432
2010	0	30544	43201	38107	41991
2011	0	41255	32652	39111	28060
2012	0	40931	32751	32051	44468
2013	0	28262	26816	42190	44887
2014	0	38817	39778	33714	32108
2015	0	29267	29734	42233	30567
2016	0	30922	42548	34078	42431
2017	0	33992	29105	25617	26560
2018	0	27217	29242	34858	41135
2019	0	31146	34597	31060	34372
2020	0	30228	35127	42930	35338
2021	0	37095	31074	36998	36319
2022	0	35357	41464	28630	29262
2023	0	31777	37966	27229	39914
2024	0	32090	42098	38831	44268
2025	0	36537	30817	35869	36674
2026	0	28113	28476	38410	44350
2027	0	39057	31312	37797	42827
2028	0	38274	31646	31613	32767
2029	0	29033	43769	37761	44069
2030	0	27206	37757	37572	29773
2031	0	26836	40216	41837	25782
2032	0	31898	36366	38641	38602
2033	0	42204	41335	29430	44868
2034	0	32255	41054	28992	32611
2035	0	32037	43810	37920	30455
2036	0	39293	36424	27524	36407
2037	0	27016	27021	44277	41033
2038	0	40438	37815	26516	25353
2039	0	42704	39092	44409	44905
2040	0	43547	42102	39872	43444
2041	0	30397	27732	38549	41086
2042	0	32531	32687	38169	43858
2043	0	31073	28675	39387	29818
2044	0	39984	32816	31177	30134
2045	0	26604	25484	38484	26333
2046	0	39670	44970	43259	35131
2047	0	40744	44861	39963	41076
2048	0	26408	44621	30726	43105
2049	0	30623	42762	34796	44702
2050	0	41918	32103	40219	33593
2051	0	44380	32294	42558	29284
2052	0	31620	28596	32760	30997
2053	0	31901	33397	40283	38891
2054	0	26303	42347	34271	27936
2055	0	39004	30743	41194	28404
2056	0	27251	35575	34380	39512
2057	0	39963	32798	44958	25086
2058	0	44441	42220	28101	29495
2059	0	38258	36654	44053	31723
2060	0	31670	39739	35856	35969
2061	0	38171	36695	42622	41139
2062	0	43414	35061	26457	39005
2063	0	38524	32192	38956	42557
2064	0	38883	30321	31089	25072
2065	0	31436	32000	29238	30290
2066	0	36511	30637	32821	30800
2067	0	37127	27576	40308	42951
2068	0	31331	31853	38953	40926
2069	0	38479	28928	44733	33678
2070	0	43437	39784	26928	38624
2071	0	38211	39297	38310	35030
2072	0	38178	37267	36883	25433
2073	0	44278	26461	36559	31606
2074	0	26454	29941	27208	38614
2075	0	36854	32495	33966	42583
2076	0	32024	26153	33214	36570
2077	0	28685	33464	36625	41091
2078	0	37975	25271	41037	26319
2079	0	30916	33140	40519	29002
2080	0	39508	27312	38497	37619
2081	0	41630	29069	42167	41533
2082	0	43788	32073	31641	41353
2083	0	27974	42417	37288	32809
2084	0	25434	38806	27600	34257
2085	0	39647	33151	28814	36028
2086	0	28057	28087	32405	42024
2087	0	41983	32337	26340	37254
2088	0	29551	35722	36945	34994
2089	0	26613	29448	38485	41174
2090	0	43165	33022	44968	42080
2091	0	40587	34599	29923	39383
2092	0	27597	35022	33687	42524
2093	0	42990	44042	41778	38203
2094	0	38043	26616	42101	38615
2095	0	26630	27306	30686	42382
2096	0	32215	43544	33794	39442
2097	0	26481	33079	32462	36574
2098	0	29900	39345	31646	44045
2099	0	30778	41647	41694	33948
2100	0	32795	34153	27354	44170
2101	0	36952	29295	36604	34355
2102	0	31319	33181	34853	43684
2103	0	29566	35042	27733	37379
2104	0	43911	42938	29729	28368
2105	0	44383	27235	35424	33456
2106	0	35704	25527	33982	25782
2107	0	35932	26001	26067	29573
2108	0	27852	37278	43024	32784
2109	0	30288	26199	43790	39095
2110	0	36528	40671	34622	25223
2111	0	38762	39312	34378	25456
2112	0	35801	26635	26333	31416
2113	0	37184	26160	32081	25277
2114	0	43151	43149	28667	37850
2115	0	39990	34499	43698	33024
2116	0	35030	44665	37386	38442
2117	0	41901	25372	39694	44493
2118	0	32971	39738	26944	33858
2119	0	38541	31703	27170	26068
2120	0	41540	26996	40866	43834
2121	0	30319	37971	35305	39141
2122	0	34303	36889	30882	28491
2123	0	44012	27308	29031	32598
2124	0	33555	32483	30102	38449
2125	0	30383	32910	39615	31515
2126	0	43880	43095	32731	44599
2127	0	30520	29920	31578	26132
2128	0	31469	28095	29484	31913
2129	0	27952	39775	41719	27987
2130	0	29242	38371	41425	42273
2131	0	36605	33001	38312	32012
2132	0	43944	43177	43915	42589
2133	0	40667	40914	42498	28042
2134	0	38427	43989	35016	42483
2135	0	31186	41350	37555	28951
2136	0	39821	27320	34227	35888
2137	0	39862	28658	36142	37342
2138	0	27722	42320	42269	37464
2139	0	38586	44706	25787	25509
2140	0	35076	36073	35410	29685
2141	0	25224	41272	36178	26885
2142	0	33264	29688	31621	37615
2143	0	32654	42388	42220	27659
2144	0	36551	43547	27577	29025
2145	0	29099	39356	43430	42584
2146	0	35519	29593	40924	33375
2147	0	32484	33777	35810	34765
2148	0	37312	42356	44105	34524
2149	0	31801	43336	39036	37023
2150	0	31319	38179	43553	40490
2151	0	40917	43613	30670	25500
2152	0	25029	27625	37922	26073
2153	0	39788	39625	33220	28378
2154	0	30759	32077	37028	38829
2155	0	38401	34527	27716	33542
2156	0	35374	37674	41200	26244
2157	0	33639	43112	34750	31608
2158	0	37364	38378	40808	37346
2159	0	29142	44972	40166	38071
2160	0	44547	36036	39375	38756
2161	0	28130	26292	33224	40724
2162	0	28775	26742	34972	29364
2163	0	28466	30443	41403	27606
2164	0	34484	37803	40370	41123
2165	0	39817	42489	35455	37703
2166	0	33253	42245	35589	26821
2167	0	34659	37756	41494	42935
2168	0	41671	25245	27687	25128
2169	0	33351	31912	28265	27569
2170	0	25806	30118	44731	33163
2171	0	29507	31680	26054	43994
2172	0	44167	39965	33190	43165
2173	0	30756	40181	27965	31314
2174	0	32597	37033	43616	33706
2175	0	42408	29553	40655	30128
2176	0	40639	36333	29259	29307
2177	0	32686	43626	33496	36626
2178	0	31230	42945	35137	26084
2179	0	43224	38411	34765	25061
2180	0	32534	27730	40594	26941
2181	0	39287	31953	27609	25619
2182	0	38730	37128	26861	42451
2183	0	44787	26994	44783	42139
2184	0	38382	34130	27869	43531
2185	0	34379	37726	27993	38986
2186	0	40325	27187	35253	27585
2187	0	27774	40060	31246	26325
2188	0	39367	29003	28569	36272
2189	0	36380	37252	30770	26616
2190	0	26295	33877	25536	39604
2191	0	40567	37887	34147	40293
2192	0	29973	37545	31690	31294
2193	0	42884	35628	40395	36479
2194	0	30910	31997	43043	40812
2195	0	37743	40634	44874	44878
2196	0	43484	28820	26602	42761
2197	0	37295	32897	40335	26241
2198	0	33291	43098	30874	29652
2199	0	32543	32201	27434	29662
2200	0	27982	29261	33879	41151
2201	0	41551	42334	33707	30649
2202	0	32516	41465	31836	30988
2203	0	34539	36970	26268	26241
2204	0	35980	33801	37879	26444
2205	0	44896	33364	31250	26985
2206	0	43099	27466	35178	32957
2207	0	30097	37200	28969	40587
2208	0	40694	29404	27277	32678
2209	0	37067	37452	34290	42541
2210	0	32184	33279	25641	37325
2211	0	34911	37571	35126	25204
2212	0	36916	31220	30673	37535
2213	0	39808	26413	31393	37525
2214	0	27185	26719	43769	26868
2215	0	39735	34123	28882	30227
2216	0	36617	41848	30313	31186
2217	0	35008	39550	30511	32532
2218	0	44819	34799	25672	35661
2219	0	44468	31787	43005	43240
2220	0	29412	35130	29852	38674
2221	0	29037	32139	28091	40602
2222	0	35561	28793	25250	33977
2223	0	40536	28017	34270	43454
2224	0	31840	39746	37405	31832
2225	0	34047	38732	33284	30769
2226	0	33344	30828	30130	44623
2227	0	36545	44494	34873	33431
2228	0	27722	25479	33398	29389
2229	0	34603	26258	39587	29040
2230	0	38732	36217	41756	28543
2231	0	39128	28453	26036	32849
2232	0	42001	36900	32837	41261
2233	0	31268	32726	31954	26584
2234	0	38194	30958	44892	33185
2235	0	29081	26994	41630	38695
2236	0	43730	34969	42162	38237
2237	0	31418	33407	35309	28002
2238	0	35777	28924	31107	40774
2239	0	28057	41380	37952	26386
2240	0	34246	29529	34818	37266
2241	0	43710	28704	40201	39662
2242	0	37111	42714	40572	41785
2243	0	30749	41711	32570	43046
2244	0	34710	27340	29937	31692
2245	0	28645	25764	35062	38072
2246	0	43588	32570	39596	43743
2247	0	26712	28504	33562	41636
2248	0	29559	29241	30224	39172
2249	0	35253	32923	41088	25379
2250	0	43937	34344	32253	40474
2251	0	40196	31295	34614	32107
2252	0	33599	25196	37870	25394
2253	0	25117	25829	28211	42847
2254	0	34021	44325	26255	30091
2255	0	29061	34240	34704	36171
2256	0	32872	42353	30708	26640
2257	0	33835	31594	28667	36029
2258	0	35211	28779	35538	39399
2259	0	34221	42795	28419	33044
2260	0	31227	40630	32525	32261
2261	0	42204	26955	28787	37181
2262	0	26389	25194	30295	25981
2263	0	40193	44913	26582	28396
2264	0	32083	43058	32016	38506
2265	0	31859	34403	44566	25245
2266	0	27032	34017	32672	42840
2267	0	44413	27977	34872	38738
2268	0	41857	39791	35912	37542
2269	0	40404	33085	32347	41486
2270	0	41851	44859	28605	37434
2271	0	34260	27934	36524	36911
2272	0	28173	25737	26712	42910
2273	0	41881	43126	26054	43755
2274	0	25288	41142	40036	27412
2275	0	35058	30188	35300	38612
2276	0	42444	42896	38529	37873
2277	0	32375	37059	36517	31018
2278	0	44179	39695	26944	43928
2279	0	35817	36043	25809	27169
2280	0	29424	37616	35600	43955
2281	0	26570	37167	28574	31006
2282	0	41361	28262	33638	29021
2283	0	29182	29956	38367	30012
2284	0	37518	35291	31220	29776
2285	0	42076	30272	38232	36136
2286	0	37111	43776	28053	34705
2287	0	25019	37051	42073	35824
2288	0	27761	32977	37217	42622
2289	0	40427	25209	25114	41459
2290	0	37020	26509	38693	38474
2291	0	34473	27948	35708	25284
2292	0	34803	36872	25050	44362
2293	0	39359	32701	38334	36242
2294	0	43518	41259	29929	31516
2295	0	37888	37524	40246	39143
2296	0	39035	36572	35903	39311
2297	0	26531	30713	26142	35678
2298	0	41642	44201	44538	42866
2299	0	32009	40337	40878	27937
2300	0	33776	25185	28848	37207
2301	0	27865	25622	44518	27942
2302	0	30482	26728	35576	32613
2303	0	40322	31257	42850	41979
2304	0	31756	25756	41194	40842
2305	0	27789	34703	25789	26350
2306	0	26016	41428	25106	44690
2307	0	29377	42911	41243	27704
2308	0	34786	29578	42506	39183
2309	0	42311	25341	40824	31241
2310	0	31513	34217	39032	42374
2311	0	43073	43025	36007	37206
2312	0	41552	36266	35278	33462
2313	0	43856	43563	27273	27759
2314	0	27461	41871	25185	40936
2315	0	39233	39676	32087	36820
2316	0	40437	41499	32975	28860
2317	0	41000	35426	36986	40638
2318	0	36374	28936	40178	29598
2319	0	43197	33110	43852	42941
2320	0	32877	37741	25745	44163
2321	0	42894	42308	39820	30000
2322	0	34791	29440	25245	32383
2323	0	34076	43459	27213	30282
2324	0	36375	37965	36687	33607
2325	0	30922	30754	29389	40151
2326	0	34594	33941	40285	27426
2327	0	30079	31453	38376	32290
2328	0	36784	37464	30999	32861
2329	0	41841	44585	30871	35705
2330	0	44691	38904	38229	26640
2331	0	39425	26440	28986	33735
2332	0	35708	34058	35192	25374
2333	0	32323	34513	44035	44772
2334	0	25751	25268	44869	36855
2335	0	38060	25329	38504	26950
2336	0	39847	29520	31416	41997
2337	0	34664	31860	41587	42424
2338	0	26894	29457	44034	31281
2339	0	29967	28931	38678	43136
2340	0	26826	25157	34679	27456
2341	0	37046	28238	37530	41421
2342	0	38723	32091	30013	35117
2343	0	37571	37417	39962	27655
2344	0	44933	32626	33297	32819
2345	0	36348	33804	40155	34156
2346	0	29639	41856	29358	28637
2347	0	43440	34860	35383	31272
2348	0	30089	36007	27294	25561
2349	0	35950	40878	31211	28501
2350	0	36295	38713	35679	32086
2351	0	32389	37928	30753	28183
2352	0	37572	40453	39590	35034
2353	0	39254	28136	28596	38947
2354	0	29650	44291	38126	29619
2355	0	28937	40800	37244	28463
2356	0	25795	35768	37958	29199
2357	0	37866	42520	26726	34918
2358	0	27440	34563	37966	38504
2359	0	29592	25698	30659	39866
2360	0	42259	35516	31177	28653
2361	0	42000	27475	27240	37220
2362	0	35732	33683	36044	29386
2363	0	28036	34538	41029	39423
2364	0	36826	27801	35170	26913
2365	0	39185	42461	25206	38165
2366	0	39936	42779	42561	40609
2367	0	32183	37909	29626	44910
2368	0	35026	31805	28766	30746
2369	0	37192	33769	43195	32054
2370	0	29285	25071	33686	34793
2371	0	42944	42861	28342	41801
2372	0	32642	43762	43947	31184
2373	0	44455	32112	36155	35168
2374	0	27261	34823	29688	35689
2375	0	26877	37027	35492	34597
2376	0	35581	39567	37132	35130
2377	0	40944	41262	42338	42818
2378	0	43572	31153	33949	28890
2379	0	44880	39884	37868	32711
2380	0	34263	42623	33017	35009
2381	0	28138	28948	32628	35837
2382	0	44069	29543	30439	39022
2383	0	41830	30480	33712	30290
2384	0	42844	37647	34148	30577
2385	0	36872	32290	35241	44112
2386	0	41302	38241	43711	38092
2387	0	41347	36973	37749	28765
2388	0	28185	28099	35194	40002
2389	0	36259	43451	44458	41389
2390	0	25507	30161	43826	40527
2391	0	33108	28971	28912	36205
2392	0	32675	41596	41702	37486
2393	0	40373	26731	25048	38549
2394	0	28630	34080	35588	42862
2395	0	37976	34133	42789	34970
2396	0	37510	39323	40433	38976
2397	0	27872	36909	33813	31228
2398	0	31789	43454	33115	44162
2399	0	25512	43506	41298	34225
2400	0	33642	27860	26874	33694
2401	0	43826	25511	43212	27302
2402	0	38849	28514	42651	32078
2403	0	36280	38545	42174	29985
2404	0	32454	41989	36564	42279
2405	0	27426	31072	29394	32772
2406	0	35766	30545	29338	34274
2407	0	29420	31284	29784	32872
2408	0	41258	36638	35151	25480
2409	0	38021	34879	35498	32592
2410	0	39732	29089	37611	25176
2411	0	27346	31371	39791	29632
2412	0	32742	27836	32821	31992
2413	0	41191	34925	37686	30104
2414	0	34821	29912	32589	38676
2415	0	41038	37119	35330	33684
2416	0	39020	33084	44600	43424
2417	0	31339	37436	42295	34046
2418	0	27132	36640	38422	36889
2419	0	40985	32548	30790	32736
2420	0	35009	39173	43313	34471
2421	0	25801	41786	28749	36103
2422	0	31926	39366	39528	41694
2423	0	34866	26698	43109	34950
2424	0	29303	26141	31147	35595
2425	0	40633	26515	26653	26375
2426	0	33661	43258	40283	33747
2427	0	37983	28968	28275	33911
2428	0	31105	43330	30414	33790
2429	0	32397	39355	34386	42975
2430	0	31202	31347	33032	44584
2431	0	28786	31119	43062	44834
2432	0	40946	39274	33143	40394
2433	0	32718	28715	38739	25211
2434	0	36737	26505	42469	36713
2435	0	29422	38512	44668	30815
2436	0	29881	31420	34818	42249
2437	0	37054	43290	39001	44741
2438	0	33673	29103	36837	35075
2439	0	39562	33412	29621	36540
2440	0	37694	31858	44352	35090
2441	0	36308	33625	31118	40719
2442	0	40625	39248	25467	39424
2443	0	33016	41115	42122	40997
2444	0	33765	42079	31162	40859
2445	0	26798	27786	38014	27632
2446	0	35736	38745	29945	33199
2447	0	28713	27852	28376	39099
2448	0	39307	28809	29512	31136
2449	0	28537	25169	40404	38379
2450	0	39377	40125	31416	25040
2451	0	36292	32450	37397	43750
2452	0	38130	31198	36892	26251
2453	0	41564	33483	35607	34353
2454	0	36690	39847	44606	29978
2455	0	34428	34425	42781	27813
2456	0	41567	30522	36922	37847
2457	0	43149	40478	42608	27354
2458	0	28999	28214	25521	43391
2459	0	38583	41127	39325	27224
2460	0	44956	32600	42240	43995
2461	0	38762	37873	26587	39593
2462	0	43967	39876	34429	39063
2463	0	31069	28335	43314	32337
2464	0	36859	31862	30010	41005
2465	0	27691	34783	39914	38812
2466	0	43810	26940	25216	36037
2467	0	29939	38790	31049	37399
2468	0	27835	42930	39431	32112
2469	0	42164	32220	39406	25604
2470	0	30049	35643	33219	28242
2471	0	38732	27860	26024	36281
2472	0	42520	31048	35672	44538
2473	0	39567	31917	34020	28438
2474	0	29110	41437	27527	43763
2475	0	31284	44971	31514	42282
2476	0	38813	39631	33234	28954
2477	0	25738	32357	43002	29027
2478	0	29021	40174	33617	34692
2479	0	30824	38909	29596	35936
2480	0	37496	38246	32249	35598
2481	0	25590	28964	32560	42285
2482	0	30598	38403	30255	25066
2483	0	29311	27262	38837	34053
2484	0	30323	36209	27924	44442
2485	0	33342	34523	32221	37354
2486	0	43559	32652	39188	31670
2487	0	30805	41110	31478	31827
2488	0	38938	39148	30956	28071
2489	0	29487	40856	36350	37649
2490	0	44636	35503	26803	34298
2491	0	33213	34610	42143	33404
2492	0	42563	26465	31049	26662
2493	0	36722	25577	34814	29874
2494	0	35534	35969	28913	34397
2495	0	44604	38142	33425	41407
2496	0	35250	34748	35926	36114
2497	0	25765	38186	38582	27504
2498	0	38914	25239	35854	33805
2499	0	26658	31236	27461	25310
2500	0	38675	33781	27844	28221
2501	0	34132	34624	42368	30842
2502	0	25737	25311	43500	38744
2503	0	26836	25506	26398	42838
2504	0	31765	38323	33076	29566
2505	0	26465	35320	42981	29868
2506	0	33853	28568	44731	43227
2507	0	42532	28663	44158	28371
2508	0	41725	37184	27663	29358
2509	0	32039	35751	28873	29856
2510	0	37300	43361	35851	27403
2511	0	31341	44137	40883	41672
2512	0	38318	32711	30862	28946
2513	0	30680	30986	36441	38390
2514	0	44777	27871	40721	44029
2515	0	31583	33373	39376	40636
2516	0	37550	26849	34322	28368
2517	0	36520	39997	39376	29470
2518	0	43964	41168	28456	36097
2519	0	33541	34058	41771	43148
2520	0	36356	33661	37824	30260
2521	0	34966	34631	27813	40452
2522	0	37837	38962	40150	26628
2523	0	28146	32108	29146	28486
2524	0	34311	33521	25110	30859
2525	0	35109	43834	31249	34852
2526	0	37903	38982	42589	41215
2527	0	36493	27012	41182	38098
2528	0	26086	44677	44702	35808
2529	0	41438	44652	31515	28272
2530	0	43742	28184	35773	44438
2531	0	30693	32895	38191	34816
2532	0	35750	39310	30985	27994
2533	0	31448	26477	41513	27567
2534	0	27472	30551	34997	40401
2535	0	35237	25378	30796	36788
2536	0	41106	39971	32237	25963
2537	0	35409	33894	33585	38942
2538	0	27653	38034	29767	39480
2539	0	27701	44559	31665	28160
2540	0	44894	37983	33041	30549
2541	0	38663	25094	42787	31293
2542	0	27147	44028	35713	26260
2543	0	44058	39294	44668	29212
2544	0	41083	42562	28488	34666
2545	0	39697	38868	42348	26847
2546	0	32488	44459	43407	30383
2547	0	36832	43549	36676	38920
2548	0	26609	31858	31061	29695
2549	0	44265	44960	29111	40687
2550	0	25050	35344	27270	35221
2551	0	27713	29998	41830	35190
2552	0	38749	33539	38968	32855
2553	0	34316	42778	42879	35321
2554	0	40579	39484	44161	40380
2555	0	39608	34483	35622	37199
2556	0	26903	39171	37927	33524
2557	0	42944	34865	28858	34240
2558	0	38144	37767	44784	42577
2559	0	38698	39595	33153	38923
2560	0	36787	37055	26973	36913
2561	0	25288	25402	36135	26411
2562	0	33793	30182	30032	26723
2563	0	35943	42075	32253	35353
2564	0	32473	28229	34497	40898
2565	0	37563	29278	42654	43226
2566	0	35932	36960	42419	31818
2567	0	39071	41967	29340	39505
2568	0	28560	41555	30268	42865
2569	0	38491	29131	34680	37362
2570	0	39691	37514	42723	33635
2571	0	41422	42018	32446	28230
2572	0	30032	44624	39043	25714
2573	0	35852	26868	38442	38287
2574	0	25508	27538	28063	42120
2575	0	26598	28359	26195	34653
2576	0	42823	43618	36573	41962
2577	0	38567	41496	36558	34851
2578	0	26915	31500	29137	32945
2579	0	43579	33457	38509	28912
2580	0	38847	26391	34497	35649
2581	0	42404	40896	34451	35719
2582	0	44585	27963	27292	30655
2583	0	41468	43486	35420	27781
2584	0	36380	34508	33510	35970
2585	0	38730	38710	26296	26587
2586	0	35282	27761	30617	31168
2587	0	28961	38774	32906	27001
2588	0	32883	34521	25582	34377
2589	0	34911	41903	43497	29537
2590	0	35884	26559	44939	39903
2591	0	41698	32388	33747	29804
2592	0	31945	41289	25076	26538
2593	0	41614	38495	35970	36780
2594	0	44446	39087	31493	34744
2595	0	31643	41582	42251	29062
2596	0	33776	38435	44460	41792
2597	0	35797	32619	27788	31818
2598	0	33226	40920	40776	43686
2599	0	31078	27030	32814	44401
2600	0	30914	25874	34817	43506
2601	0	43239	36641	34916	25308
2602	0	43422	40986	31496	35911
2603	0	37166	31095	26924	42314
2604	0	38747	42350	41002	44990
2605	0	41617	31006	44127	32288
2606	0	33703	43277	27806	27818
2607	0	34339	29966	32602	44994
2608	0	28500	32909	35197	34216
2609	0	27223	41687	30911	37934
2610	0	32374	27104	38287	33241
2611	0	36623	26876	37588	44348
2612	0	40986	44829	43348	38140
2613	0	44033	32749	26298	33323
2614	0	28158	40336	43866	37457
2615	0	27056	35211	35581	33612
2616	0	30659	30979	31416	29306
2617	0	27506	35220	34563	26325
2618	0	35952	42456	38565	32277
2619	0	26992	43821	34006	28366
2620	0	29087	39721	42495	27233
2621	0	41781	32932	40148	42828
2622	0	39377	34156	26683	41682
2623	0	30093	37344	32719	44048
2624	0	33978	35187	38207	32637
2625	0	32316	37690	35354	41186
2626	0	31502	42892	37723	29279
2627	0	32892	44826	40489	36746
2628	0	25965	35299	36032	43985
2629	0	38942	39473	41983	31120
2630	0	33050	25880	36797	40325
2631	0	38542	41133	29573	27401
2632	0	39634	28755	34478	33396
2633	0	41295	25988	30156	42865
2634	0	33902	38287	42945	31582
2635	0	37195	39784	28667	40429
2636	0	44977	27965	39749	36203
2637	0	43124	44586	27740	40462
2638	0	25472	39299	44555	25629
2639	0	29621	28083	32700	32727
2640	0	28662	25577	40391	27238
2641	0	37139	25897	29133	31265
2642	0	37514	29628	25870	29163
2643	0	26917	26281	34217	30508
2644	0	29041	29433	42495	43622
2645	0	42673	27131	28541	43955
2646	0	29794	37106	36356	40623
2647	0	37450	31432	41648	29541
2648	0	37062	43071	38449	37051
2649	0	29434	38438	38770	38556
2650	0	26992	29175	40527	27905
2651	0	37039	33505	31357	30478
2652	0	25935	31579	33509	32273
2653	0	30287	41008	39531	39320
2654	0	30029	34473	25069	41272
2655	0	27681	28246	37439	35624
2656	0	31824	40300	36943	36455
2657	0	27343	41317	28064	29627
2658	0	38686	36879	34880	32020
2659	0	42931	37734	43256	34852
2660	0	44002	38352	43155	43590
2661	0	30447	38054	25918	30501
2662	0	25934	34121	30279	35516
2663	0	35528	43069	37067	44111
2664	0	31040	34812	41198	40097
2665	0	39566	44814	38569	39161
2666	0	42352	34688	37866	34811
2667	0	38756	37785	39917	42530
2668	0	27571	30269	39798	41948
2669	0	31108	37742	43831	36871
2670	0	35534	25648	25261	25978
2671	0	37735	41070	41710	32304
2672	0	25240	32843	35306	42750
2673	0	28222	26326	37730	27558
2674	0	37195	42674	39986	26653
2675	0	28694	27624	40975	27714
2676	0	28377	43122	35100	43644
2677	0	30261	29993	38083	31986
2678	0	35697	41972	41490	30119
2679	0	41718	44810	38428	25669
2680	0	30178	27717	40128	37791
2681	0	25989	41529	41940	34419
2682	0	40258	28127	37556	44806
2683	0	27095	30719	41663	42326
2684	0	31359	34116	36598	36538
2685	0	26827	37887	43135	29898
2686	0	35052	42378	33193	44684
2687	0	26415	38664	33445	29621
2688	0	34328	28693	40938	40227
2689	0	41704	38488	43290	28684
2690	0	27694	27408	31617	38893
2691	0	33179	27504	33838	31209
2692	0	27138	29679	33833	43738
2693	0	33961	31239	38085	32823
2694	0	43244	26900	37573	27323
2695	0	25663	36526	42754	44706
2696	0	44374	31555	26498	37146
2697	0	30562	34290	39924	38078
2698	0	25885	35024	44109	44959
2699	0	39601	33950	43317	39140
2700	0	37888	35008	31050	34146
2701	0	25301	39859	25621	30408
2702	0	32197	34686	38736	41869
2703	0	38985	34008	39814	33611
2704	0	28000	37572	37049	36006
2705	0	33712	35665	43130	27971
2706	0	44321	41948	43447	36918
2707	0	43438	30206	28346	26602
2708	0	44646	35017	34139	33601
2709	0	27703	37577	36739	39461
2710	0	43137	35963	41266	37123
2711	0	27900	35971	34803	30994
2712	0	31473	25185	39638	29799
2713	0	42876	29984	41187	41074
2714	0	41533	36599	32129	38964
2715	0	39295	25282	43350	35882
2716	0	28891	36701	37040	38081
2717	0	26562	34991	26685	39893
2718	0	40924	44110	44944	32550
2719	0	28409	40559	32037	40300
2720	0	37684	38993	34329	41314
2721	0	40090	39788	29781	40681
2722	0	37604	41655	32618	28482
2723	0	43567	32897	36819	43563
2724	0	27450	41113	32808	41098
2725	0	39640	30025	38453	44459
2726	0	41167	41984	36267	44589
2727	0	35329	37959	38211	42301
2728	0	35955	32684	39678	32223
2729	0	38926	31423	28817	35516
2730	0	32990	43316	44961	32549
2731	0	25828	44492	29121	30393
2732	0	34878	32221	40187	30824
2733	0	41108	37153	32379	34228
2734	0	35962	39785	35429	33732
2735	0	26620	34528	31797	26290
2736	0	38174	39180	27785	28742
2737	0	26895	25277	36012	40649
2738	0	39050	26138	39686	42263
2739	0	27639	28768	25583	27451
2740	0	39566	25915	33491	30033
2741	0	43200	44154	37595	43378
2742	0	39044	31621	39451	37605
2743	0	41799	39690	31497	43982
2744	0	33669	31551	40437	42530
2745	0	37056	43817	37647	38331
2746	0	26661	35357	27992	32200
2747	0	41830	34155	41477	39506
2748	0	41243	37536	34126	28731
2749	0	40467	26148	26206	42648
2750	0	28991	29972	25504	38566
2751	0	43187	28933	29780	28305
2752	0	37761	44508	25536	43414
2753	0	37966	28652	25983	34143
2754	0	42569	33037	33125	37400
2755	0	28905	43280	44283	42165
2756	0	26958	29263	37205	26277
2757	0	31361	32291	28386	28207
2758	0	38454	42165	33019	27546
2759	0	25972	31217	34450	38667
2760	0	34586	29265	38213	43149
2761	0	40328	42583	39719	42720
2762	0	40909	44734	26801	36995
2763	0	29559	25878	34512	29247
2764	0	25155	39858	28510	43532
2765	0	38388	29170	40340	29956
2766	0	29863	28599	37357	38199
2767	0	43666	35205	26447	30944
2768	0	26334	33642	28115	40813
2769	0	32257	26005	41532	39545
2770	0	38122	39081	37449	32462
2771	0	37934	38660	27586	25315
2772	0	44641	34712	30015	29297
2773	0	37883	43561	29363	31523
2774	0	35915	33488	26513	35490
2775	0	28455	44818	28097	42332
2776	0	32616	31385	42005	35187
2777	0	42675	36265	34712	31978
2778	0	28537	28246	35684	40275
2779	0	29153	29273	32344	40255
2780	0	42677	32070	33540	39062
2781	0	37692	33916	42297	39266
2782	0	42347	33259	30746	33805
2783	0	27803	37970	29577	31816
2784	0	33695	41099	43932	27464
2785	0	44578	36510	25723	34921
2786	0	33929	39498	35041	30704
2787	0	36889	25087	26175	30626
2788	0	34337	39161	39309	25157
2789	0	28340	43401	28214	27654
2790	0	31795	33832	25427	44333
2791	0	31155	42461	41361	31421
2792	0	29331	35631	25349	42311
2793	0	32070	36782	39212	43560
2794	0	33394	42348	37734	35952
2795	0	29836	34145	27130	42593
2796	0	28727	34194	29165	35103
2797	0	42924	35892	35984	35772
2798	0	31470	33633	28558	29471
2799	0	27596	37326	40144	43792
2800	0	43837	30081	32930	34040
2801	0	35328	33169	36653	27007
2802	0	32453	37276	38489	27229
2803	0	42004	36369	35516	41684
2804	0	31533	35291	25157	36234
2805	0	42696	29566	43641	43115
2806	0	40435	31972	28951	30472
2807	0	31897	42871	26878	40751
2808	0	26760	40018	37124	38741
2809	0	33346	35663	40951	35886
2810	0	39032	26839	35554	32207
2811	0	32466	43096	28231	36991
2812	0	35770	33856	34690	36380
2813	0	41285	37340	40002	31639
2814	0	25681	31136	25151	37533
2815	0	25472	30010	41174	40840
2816	0	33098	27539	38370	35768
2817	0	35607	25254	35306	37916
2818	0	38403	25185	37145	29843
2819	0	44650	39096	30931	33795
2820	0	28111	28694	28268	42308
2821	0	43754	38644	34945	38441
2822	0	26462	31507	37318	34966
2823	0	33598	32393	43451	43121
2824	0	44409	32986	38094	31431
2825	0	33842	33670	29961	40161
2826	0	42144	42312	32484	40990
2827	0	29472	34924	30573	33645
2828	0	31381	40600	44223	33539
2829	0	38004	36877	34289	38804
2830	0	39233	43955	44990	42940
2831	0	42603	40322	34830	29593
2832	0	40191	42692	27902	30133
2833	0	27576	43164	27116	43675
2834	0	29964	38165	37618	27307
2835	0	33402	34453	36942	25656
2836	0	44322	31030	31562	44224
2837	0	32534	42860	29417	31425
2838	0	40542	33619	36717	43524
2839	0	32277	30576	44659	30745
2840	0	27435	37598	33150	35767
2841	0	27604	30461	28943	38962
2842	0	32193	33140	42521	38694
2843	0	28318	27057	34713	42724
2844	0	43011	33855	26694	28833
2845	0	32933	28690	43421	25316
2846	0	41429	43228	29730	43863
2847	0	34372	30190	38153	39391
2848	0	27538	26204	27311	36866
2849	0	43592	39342	42437	37320
2850	0	36364	38844	35893	34030
2851	0	26245	31733	38708	29970
2852	0	31626	30702	39788	37440
2853	0	29255	32882	30471	26576
2854	0	40799	27227	32640	44637
2855	0	39457	32962	27954	34617
2856	0	28465	32514	28360	25484
2857	0	34681	43059	32031	40552
2858	0	44905	32719	34890	42862
2859	0	35301	25398	34911	43858
2860	0	35955	31905	40898	37085
2861	0	33440	34804	34384	25470
2862	0	29837	39196	27860	27305
2863	0	33216	32178	37665	38748
2864	0	40268	25994	29308	25455
2865	0	34536	30065	43940	27038
2866	0	32332	38012	43685	29906
2867	0	38047	28002	38276	26840
2868	0	26883	36596	36571	26226
2869	0	27139	34572	37346	33398
2870	0	30356	39835	39906	39859
2871	0	42417	26237	33285	26442
2872	0	39558	31911	35086	30121
2873	0	29865	27440	41303	34088
2874	0	32390	43753	33824	38004
2875	0	32232	34617	36920	29465
2876	0	35275	43879	33093	37167
2877	0	28768	25139	43817	39373
2878	0	33087	40375	28653	44062
2879	0	28886	27962	32114	28326
2880	0	29644	29542	28261	44637
2881	0	35751	36526	26008	39542
2882	0	28526	40522	40806	30011
2883	0	44238	41289	34257	25948
2884	0	28221	38719	30368	42477
2885	0	35965	30655	31496	35661
2886	0	31993	37458	29881	33033
2887	0	38213	28675	38326	33803
2888	0	40234	28784	28608	37820
2889	0	44544	39109	39608	27466
2890	0	40475	33149	33310	32152
2891	0	41214	39029	28139	33893
2892	0	44960	26200	26807	26697
2893	0	44303	37422	34008	27915
2894	0	41841	38297	34848	32532
2895	0	32435	36788	26115	41733
2896	0	32324	41289	38701	25913
2897	0	30933	40006	31259	31719
2898	0	30149	29965	38989	33947
2899	0	30908	27493	28842	39087
2900	0	30434	42311	38738	40541
2901	0	36144	26987	38098	33110
2902	0	40159	35879	29601	29585
2903	0	28611	35208	31392	26699
2904	0	31513	26100	41210	40941
2905	0	40053	28909	37103	40559
2906	0	30685	26160	31390	42613
2907	0	43436	26535	33863	26491
2908	0	42941	34912	35126	38008
2909	0	25607	43700	34817	43007
2910	0	40747	43847	35733	38429
2911	0	43040	42103	40138	36044
2912	0	29701	35603	41425	33321
2913	0	30505	29184	38514	37968
2914	0	29975	39189	36826	25050
2915	0	37001	41042	31820	33464
2916	0	31081	35565	25159	34627
2917	0	35789	44648	43888	37422
2918	0	44420	29095	29657	32111
2919	0	39982	43321	35030	38618
2920	0	42805	39217	40423	25435
2921	0	31832	35632	26954	33379
2922	0	27248	25833	28011	43285
2923	0	33362	28694	36889	36590
2924	0	44716	30156	33095	26900
2925	0	28621	27636	41646	30094
2926	0	37795	32796	36731	29899
2927	0	43986	34497	37265	25250
2928	0	34303	40204	42221	26051
2929	0	30830	38533	33562	30448
2930	0	37440	32809	41953	27956
2931	0	33331	37030	38312	30970
2932	0	30679	32265	25334	41955
2933	0	33612	29744	30155	29355
2934	0	41962	32987	42398	25797
2935	0	43204	25487	41903	35555
2936	0	29404	40489	25181	38414
2937	0	25065	32847	28388	36879
2938	0	25667	35406	39205	38427
2939	0	37387	29374	35313	30636
2940	0	25865	42909	25954	35919
2941	0	43192	26908	33919	33977
2942	0	44825	30922	34110	32654
2943	0	35783	38401	33816	33249
2944	0	28470	41070	26105	35912
2945	0	35518	26306	33508	28488
2946	0	30875	25762	36194	28341
2947	0	43076	42360	33776	29720
2948	0	40897	44166	29270	34152
2949	0	36304	34196	27439	29281
2950	0	31258	33086	43086	32587
2951	0	44022	40920	33445	34280
2952	0	40583	43634	41013	27830
2953	0	26983	25424	26726	44529
2954	0	27886	31119	35417	43455
2955	0	37221	37411	32716	43164
2956	0	41567	42022	30781	33070
2957	0	28518	43730	33544	44878
2958	0	35861	25322	33313	28362
2959	0	36339	28518	33578	38650
2960	0	34822	35682	42330	29921
2961	0	34026	40509	32183	36569
2962	0	37914	41961	32054	27137
2963	0	27253	28495	33288	27890
2964	0	42159	31806	36089	41254
2965	0	40684	35631	25830	33470
2966	0	27295	43319	27159	38642
2967	0	43506	28786	44353	25033
2968	0	41335	42530	29084	44100
2969	0	28692	37475	43398	34099
2970	0	42873	36705	29711	33098
2971	0	31339	44808	40861	30110
2972	0	28564	39823	44721	31102
2973	0	31273	28648	37158	29674
2974	0	38807	32933	26255	41882
2975	0	37102	26017	41406	36267
2976	0	27364	37459	30695	32969
2977	0	35591	44100	25932	31949
2978	0	34399	39612	34834	39308
2979	0	35143	25310	29690	29928
2980	0	31922	31723	31453	32457
2981	0	41734	41641	39165	35404
2982	0	39591	28520	32862	37769
2983	0	38698	30809	26216	27379
2984	0	25408	27995	30819	35356
2985	0	25334	44861	36366	39158
2986	0	43006	41965	31167	26825
2987	0	44457	35069	34774	33857
2988	0	30870	37714	33245	26207
2989	0	28311	33710	32943	44621
2990	0	27068	43838	30128	31543
2991	0	31337	42161	41957	25481
2992	0	29057	35703	26505	36764
2993	0	36735	38949	28015	27532
2994	0	28925	38320	34049	34959
2995	0	36953	29733	30889	33600
2996	0	38138	42849	26952	27565
2997	0	37321	28678	38107	32846
2998	0	31365	27387	43755	40610
2999	0	38494	30506	27573	43932
3000	0	36108	33663	38127	41058
3001	0	40983	41872	28951	40146
3002	0	28330	41848	42417	42356
3003	0	39107	34804	44701	39227
3004	0	43028	39742	35222	41064
3005	0	38967	34819	26600	35619
3006	0	34334	29060	26855	32227
3007	0	43487	34854	34714	42053
3008	0	39047	28846	26916	44934
3009	0	43695	39987	39416	35745
3010	0	38527	43249	28634	35122
3011	0	36578	25830	44726	37572
3012	0	29230	44446	27262	44629
3013	0	25745	43603	25112	30620
3014	0	41770	36086	33358	25732
3015	0	36261	35894	30011	26943
3016	0	39811	36816	43000	28638
3017	0	32420	41839	36485	44419
3018	0	43014	27955	33788	37565
3019	0	30780	44598	29096	38561
3020	0	42003	42720	33057	39134
3021	0	25890	39399	37140	32301
3022	0	43839	26967	40213	33096
3023	0	37705	39412	36371	44533
3024	0	35946	29061	25012	28756
3025	0	44662	26697	37419	42082
3026	0	29282	38984	37427	33183
3027	0	36169	32691	44755	32246
3028	0	26308	44891	40384	33445
3029	0	44612	36309	27643	36188
3030	0	34874	30619	33816	28561
3031	0	37177	32213	33065	34532
3032	0	31235	42339	42701	41787
3033	0	40631	36427	43524	28521
3034	0	29986	31326	44002	27890
3035	0	30438	31397	31487	35279
3036	0	36910	36141	43787	38224
3037	0	34272	44447	32343	40392
3038	0	36196	29791	43883	29652
3039	0	34938	42250	36336	37824
3040	0	44019	28937	41446	29945
3041	0	29080	42299	39961	39275
3042	0	39447	28824	26618	35814
3043	0	38866	43968	30089	38700
3044	0	36005	30398	39683	25528
3045	0	41042	30674	29048	33442
3046	0	39797	37707	32205	29495
3047	0	27239	34373	26606	39910
3048	0	33685	38282	25336	41038
3049	0	35931	28485	36911	27704
3050	0	38199	34630	43769	40055
3051	0	34576	35271	31379	41346
3052	0	30999	33134	33052	39352
3053	0	35472	35301	32690	36707
3054	0	39669	31102	33541	27104
3055	0	38680	42818	34801	42381
3056	0	33847	41651	32362	26938
3057	0	30090	37189	32111	29972
3058	0	31242	44549	32279	37786
3059	0	26635	26334	28548	39099
3060	0	40838	32979	25384	30049
3061	0	25676	39364	38201	40756
3062	0	29308	31830	40678	29514
3063	0	37442	43341	41752	43935
3064	0	40763	41132	27695	39563
3065	0	27233	28638	31994	37272
3066	0	42269	41251	26987	31294
3067	0	28703	42428	39045	33725
3068	0	44208	31213	38495	25094
3069	0	43443	33827	27563	44975
3070	0	43685	36994	26807	41048
3071	0	40643	25212	40685	39377
3072	0	25567	25037	41167	29498
3073	0	32072	37223	35016	28371
3074	0	33141	40944	44520	25898
3075	0	31666	43735	25264	32098
3076	0	39527	25570	43872	25300
3077	0	25579	38134	43834	37531
3078	0	42238	26915	27888	31532
3079	0	29973	37147	38070	28933
3080	0	26643	34131	43529	44037
3081	0	29041	26719	39848	27794
3082	0	29861	29502	34013	43790
3083	0	37386	26697	43622	42477
3084	0	43340	38862	30343	43712
3085	0	30843	35119	38599	41276
3086	0	41778	38717	35705	40899
3087	0	33745	44558	41370	31542
3088	0	42962	40246	32059	38930
3089	0	29441	38313	36039	41414
3090	0	27532	37742	36787	34788
3091	0	38412	34099	27914	31901
3092	0	37810	41539	26329	27797
3093	0	30652	37897	35923	32098
3094	0	34922	42543	39750	37093
3095	0	30889	31982	43357	30925
3096	0	42292	25940	30836	31186
3097	0	25600	41631	42080	28277
3098	0	29983	42522	36847	27066
3099	0	35821	29384	43291	41052
3100	0	30917	42851	41741	39342
3101	0	32836	36913	42278	40345
3102	0	44957	37904	43028	30974
3103	0	33871	36687	36873	41910
3104	0	28120	44781	27276	38529
3105	0	25154	33395	31669	29744
3106	0	27866	32836	44077	40844
3107	0	44850	42167	29146	35598
3108	0	28182	26192	40541	38608
3109	0	26093	38888	35014	35466
3110	0	37100	41609	26868	35938
3111	0	27143	37805	39994	25075
3112	0	35080	38600	37359	39759
3113	0	30405	29822	31511	37360
3114	0	32882	40928	33813	27789
3115	0	36411	42752	44517	35024
3116	0	28224	26116	34265	30162
3117	0	41943	40069	39270	33314
3118	0	39869	29011	40055	36368
3119	0	40056	33794	28827	33905
3120	0	33001	29585	38331	43848
3121	0	44997	29008	40524	31258
3122	0	28905	42483	34647	28490
3123	0	39479	44127	43145	36551
3124	0	42431	27648	37776	29655
3125	0	44711	36309	30660	33964
3126	0	26569	29319	37744	26901
3127	0	34021	26884	34367	44169
3128	0	35867	31331	33018	29120
3129	0	28403	37243	38153	33268
3130	0	31452	44305	37540	26488
3131	0	36018	32283	30088	42049
3132	0	28524	44007	43560	38937
3133	0	29955	27885	31079	35499
3134	0	34786	33883	39219	41107
3135	0	42939	37687	40023	35176
3136	0	42979	42498	37291	30058
3137	0	29717	32694	35376	31013
3138	0	26979	25588	25450	25202
3139	0	35244	32155	30764	37092
3140	0	34264	37873	27936	30018
3141	0	36116	41201	25069	43786
3142	0	27447	30339	37063	37806
3143	0	37191	42002	38925	44034
3144	0	43108	37655	28874	35823
3145	0	39346	35549	33531	33293
3146	0	37642	32037	28938	42883
3147	0	29455	33911	35720	31731
3148	0	34592	33133	36846	36743
3149	0	38274	35270	38864	44225
3150	0	31063	39707	25722	43403
3151	0	44500	34698	27537	27917
3152	0	43842	34156	39628	36218
3153	0	29563	40231	30177	44505
3154	0	39978	35276	28800	42460
3155	0	43986	35480	31596	26980
3156	0	34071	41796	42312	30803
3157	0	41850	39991	38301	42164
3158	0	39300	37990	31134	33694
3159	0	25762	25784	32563	33937
3160	0	44992	43853	37036	30887
3161	0	42029	44503	27465	30677
3162	0	38696	39897	27926	27713
3163	0	43870	32166	29898	33103
3164	0	28674	39180	28411	36780
3165	0	27992	37961	40055	39000
3166	0	32865	30457	32500	42153
3167	0	27275	30077	39951	30847
3168	0	27436	40817	44834	37282
3169	0	29355	29274	44617	35991
3170	0	38963	42238	42952	29684
3171	0	35994	40058	36167	41694
3172	0	30137	37672	28844	25844
3173	0	37912	41464	32763	25242
3174	0	39595	33504	40441	41602
3175	0	25473	35255	40052	35692
3176	0	32627	42802	32218	39015
3177	0	38913	40793	43250	29318
3178	0	31380	35031	42214	42301
3179	0	41187	31754	40092	29306
3180	0	44805	29160	29593	33544
3181	0	32762	41466	44352	34567
3182	0	38081	38719	31451	41677
3183	0	35831	33425	31250	38632
3184	0	35429	31696	26851	34298
3185	0	43237	31613	31949	25617
3186	0	29724	38300	34670	43565
3187	0	30206	35207	44682	33615
3188	0	38747	37061	33443	29758
3189	0	25031	31130	40077	36323
3190	0	29368	30311	31597	32872
3191	0	33635	44086	31448	32544
3192	0	44202	41573	30683	43455
3193	0	25566	29325	27842	44721
3194	0	30285	30385	36994	38006
3195	0	27897	30314	29081	37116
3196	0	44154	39869	35766	39142
3197	0	39799	41660	42570	28193
3198	0	31852	28303	32321	40576
3199	0	25090	34776	42165	33696
3200	0	33873	27448	30035	35907
3201	0	25421	38403	33996	41973
3202	0	31307	31959	34419	39645
3203	0	44695	33690	38956	44505
3204	0	26670	29953	38220	36231
3205	0	42748	43428	27516	32845
3206	0	42957	36251	29878	34841
3207	0	44612	42024	41168	39052
3208	0	35347	38155	41688	33739
3209	0	34793	31453	27613	32303
3210	0	29147	28152	31185	29143
3211	0	40973	28147	26054	30712
3212	0	25717	29405	32887	43866
3213	0	31094	32683	41231	37990
3214	0	25987	38371	29955	29853
3215	0	44845	42774	36625	36134
3216	0	29764	42932	39783	38061
3217	0	40008	26949	34858	27931
3218	0	27172	28572	43323	36705
3219	0	38822	26137	30988	26575
3220	0	29631	38418	44160	41420
3221	0	38171	31145	32289	37503
3222	0	29864	27028	35162	28604
3223	0	32460	37702	30576	34646
3224	0	37793	27514	38753	27770
3225	0	26968	28452	35910	29634
3226	0	30331	25336	43121	32629
3227	0	26510	35203	42335	27807
3228	0	27093	38620	35799	41943
3229	0	30026	35425	41214	26413
3230	0	30771	40219	36273	43431
3231	0	44656	26458	41338	34485
3232	0	28060	42359	30585	28385
3233	0	32585	36849	43526	28899
3234	0	26452	28919	32732	26047
3235	0	44206	44037	36988	30230
3236	0	39729	39761	43539	31900
3237	0	40944	38254	41813	33444
3238	0	32608	30241	31626	29913
3239	0	40068	25239	30606	32647
3240	0	25384	39664	39591	37800
3241	0	40474	44432	38109	26145
3242	0	35475	26802	42455	32313
3243	0	41396	42908	30555	27170
3244	0	34862	28108	34090	32311
3245	0	44828	26165	40440	36072
3246	0	28571	43961	27221	28030
3247	0	34584	30233	42975	38796
3248	0	43075	42549	28513	39245
3249	0	41918	41270	40436	27036
3250	0	27064	35541	41077	41770
3251	0	33238	38608	31604	26673
3252	0	25789	25570	30984	26316
3253	0	28945	26953	37605	26469
3254	0	37102	27335	40703	37090
3255	0	28941	27212	28176	27128
3256	0	35485	36254	30390	30754
3257	0	33331	31429	33320	25166
3258	0	30057	34584	44386	42406
3259	0	27354	38187	36609	33733
3260	0	36573	32831	29742	27692
3261	0	33129	28723	29820	41521
3262	0	32783	41320	42152	32838
3263	0	36932	38360	36301	41032
3264	0	36935	36107	33698	31638
3265	0	38139	28801	41028	35190
3266	0	25351	40447	34246	43181
3267	0	38363	30201	32634	34164
3268	0	32448	32131	27016	27981
3269	0	36854	38616	44781	33262
3270	0	42132	35825	25238	27127
3271	0	33364	35589	27124	31067
3272	0	26392	38478	25392	25327
3273	0	40558	28463	41138	30128
3274	0	37384	38540	31439	26726
3275	0	28960	41660	35998	25289
3276	0	42621	25898	27281	35861
3277	0	35561	30799	44473	41562
3278	0	30302	25358	37016	29526
3279	0	43346	27746	37299	38423
3280	0	34130	25353	29465	43049
3281	0	36437	35647	43801	37782
3282	0	26422	38548	29337	28419
3283	0	29665	39348	37955	37911
3284	0	26553	32122	33776	44154
3285	0	30359	35627	27790	35174
3286	0	31502	27193	40014	40237
3287	0	36798	29322	44324	32105
3288	0	38809	25076	27061	29469
3289	0	25892	43308	43610	39089
3290	0	40529	44991	43051	32204
3291	0	38498	41160	31781	40839
3292	0	40462	33536	34323	38531
3293	0	27206	33819	43376	30209
3294	0	38586	42364	40778	36201
3295	0	27048	40262	26569	33047
3296	0	29508	42522	30155	36037
3297	0	29359	31182	31822	43590
3298	0	33671	34708	32344	34910
3299	0	35932	33204	43021	29561
3300	0	41993	42441	25694	43197
3301	0	31238	37303	43382	36533
3302	0	26618	43761	36402	38418
3303	0	39226	33026	36354	26253
3304	0	29396	35379	44668	34235
3305	0	31891	44120	37090	39060
3306	0	38882	31975	33364	31583
3307	0	35955	35019	36495	32357
3308	0	43757	31935	28767	43878
3309	0	25968	43213	36843	29929
3310	0	28979	26733	26729	36983
3311	0	31912	35207	33154	37545
3312	0	27939	25105	36630	33974
3313	0	29845	28682	29254	44421
3314	0	26136	28698	30471	42607
3315	0	41897	36685	39055	32577
3316	0	27143	32308	30680	35901
3317	0	42514	26888	42904	34894
3318	0	28580	30022	35800	30241
3319	0	44217	36490	28107	39276
3320	0	42125	28094	41814	40827
3321	0	37717	44597	33614	42394
3322	0	27230	33021	41416	43724
3323	0	43764	35720	44023	33513
3324	0	34152	42034	40986	39268
3325	0	39491	41110	27169	42105
3326	0	35546	33997	32704	44577
3327	0	36680	32190	43253	37155
3328	0	33564	25448	29649	30348
3329	0	30213	32068	31548	35078
3330	0	34691	37994	30193	38144
3331	0	29070	34275	36428	25761
3332	0	42772	37027	31184	27720
3333	0	39211	30719	25007	38728
3334	0	26609	30174	35725	35571
3335	0	35296	25438	42232	36469
3336	0	36687	34692	25081	33229
3337	0	31032	37506	43523	29459
3338	0	27040	30987	33929	40635
3339	0	26940	42885	40916	40003
3340	0	37391	35553	26942	41021
3341	0	38789	43218	37375	38579
3342	0	42004	35898	29371	38129
3343	0	28232	25411	29103	26513
3344	0	36470	40815	36368	41539
3345	0	25781	30575	31609	41837
3346	0	27666	37003	26709	39386
3347	0	25247	38111	25011	42871
3348	0	42858	44876	40545	29083
3349	0	36855	40002	42680	25581
3350	0	27410	31068	28692	34911
3351	0	27953	44458	32837	25316
3352	0	44237	32803	30272	42022
3353	0	29033	27528	38972	29225
3354	0	41036	31466	25162	44979
3355	0	43766	38728	29956	31519
3356	0	29420	41133	34074	37053
3357	0	25628	29362	32671	33447
3358	0	31545	32073	37603	25609
3359	0	39953	40519	35293	34357
3360	0	41545	30753	38015	37610
3361	0	31860	35848	34258	29853
3362	0	41107	42826	42282	44457
3363	0	36024	26081	33333	29180
3364	0	30445	33030	27893	27902
3365	0	37869	29411	27105	30678
3366	0	38080	27268	38031	30209
3367	0	44480	30822	37792	39120
3368	0	36260	28652	26324	39461
3369	0	39595	27799	38007	31177
3370	0	42391	35635	31727	34362
3371	0	39463	28672	37624	37978
3372	0	28240	37598	41341	26934
3373	0	34324	28975	42174	40313
3374	0	28691	39357	25489	34821
3375	0	27982	26247	27994	26405
3376	0	28316	40946	36131	30535
3377	0	42783	42176	35656	26120
3378	0	43220	29995	40908	38777
3379	0	25045	33956	39099	35582
3380	0	34967	42915	41575	30118
3381	0	28373	34005	30470	39067
3382	0	33682	37946	44523	43345
3383	0	27806	40620	41801	25189
3384	0	36492	42586	38867	29014
3385	0	33100	36483	41077	26311
3386	0	27619	41201	33001	36042
3387	0	25404	42581	43513	30542
3388	0	38890	32847	30012	25908
3389	0	41538	34727	32449	35956
3390	0	35954	44953	26720	38768
3391	0	28899	31093	34423	39086
3392	0	39983	28716	29155	28544
3393	0	29698	41743	43899	25367
3394	0	44926	29343	40889	36965
3395	0	26683	44488	38532	26308
3396	0	33100	40808	34656	32503
3397	0	42689	29655	25996	43119
3398	0	34486	33625	35121	33514
3399	0	31536	36204	27936	41825
3400	0	35385	42929	30617	36834
3401	0	42211	44192	30010	35126
3402	0	43131	42339	26019	32231
3403	0	25861	34822	27445	27525
3404	0	37016	30577	34009	35104
3405	0	42951	32055	37008	27470
3406	0	32757	40984	39787	38861
3407	0	36064	29838	41544	30059
3408	0	25607	25644	31929	42080
3409	0	30839	33866	27950	37059
3410	0	40205	33721	31967	34120
3411	0	43838	28432	39006	41565
3412	0	30518	32292	39357	37269
3413	0	28576	28214	42277	28527
3414	0	39660	34258	32923	43164
3415	0	44685	40608	37513	28915
3416	0	34050	31055	33085	36629
3417	0	39918	39690	32906	38793
3418	0	36824	41304	27326	29171
3419	0	27764	41581	33671	38477
3420	0	29181	44802	25258	38735
3421	0	29416	39412	38728	36256
3422	0	42361	29677	25851	35217
3423	0	26633	31005	42855	41239
3424	0	33320	26434	29252	37284
3425	0	27718	34540	44084	25165
3426	0	26151	38650	42900	37775
3427	0	32419	32781	36609	33051
3428	0	32718	30580	34949	39451
3429	0	34315	42005	27868	33125
3430	0	28549	40270	44444	30542
3431	0	28545	39867	27322	33909
3432	0	40271	44193	39330	34734
3433	0	43044	42084	39982	33969
3434	0	42394	36302	41365	35870
3435	0	35056	25162	26071	36806
3436	0	32865	35289	29170	32770
3437	0	30559	32084	34818	35745
3438	0	43494	40501	29978	30561
3439	0	32689	26410	36412	44832
3440	0	38480	33591	32259	31961
3441	0	40177	31171	26569	32691
3442	0	33963	40644	37530	32060
3443	0	30982	31504	28009	37503
3444	0	42637	34247	35759	41556
3445	0	32743	37804	41426	40711
3446	0	38052	33924	30137	31313
3447	0	31284	29449	25092	25564
3448	0	30448	44204	41842	25862
3449	0	34607	38628	36406	30689
3450	0	34913	38401	44187	35469
3451	0	31112	31609	27149	28287
3452	0	27139	36255	34171	31317
3453	0	29858	44537	28434	35104
3454	0	43297	34984	33986	44009
3455	0	29054	43099	27454	43312
3456	0	41294	42301	35773	27222
3457	0	42066	41461	27796	41826
3458	0	30310	42379	35937	44502
3459	0	32863	42987	35799	35213
3460	0	32439	30731	27848	35324
3461	0	40142	40142	31088	41228
3462	0	29907	26759	27330	29485
3463	0	26447	28354	27666	25589
3464	0	38793	29929	40168	36333
3465	0	26623	41147	43967	29566
3466	0	44411	40758	28937	36334
3467	0	44186	39165	26534	43203
3468	0	34452	38575	43241	43631
3469	0	39234	33520	26700	42575
3470	0	30838	36354	35125	30191
3471	0	27053	36801	39587	34311
3472	0	39823	38349	42175	44148
3473	0	39590	42183	31214	43055
3474	0	38142	36402	34169	37840
3475	0	40240	43811	41150	29458
3476	0	36801	27219	39581	39094
3477	0	41753	30067	27179	34263
3478	0	42520	42776	37321	36140
3479	0	25372	37720	26620	29399
3480	0	35945	31818	29493	32562
3481	0	43902	41629	29698	42574
3482	0	40241	35349	27638	43268
3483	0	31673	27563	35804	31240
3484	0	43871	36108	26128	41794
3485	0	34521	35880	33094	42464
3486	0	36854	26058	41531	37582
3487	0	30689	44173	32779	42520
3488	0	26352	25461	31047	27258
3489	0	34219	33424	27612	38940
3490	0	38570	27188	41004	42544
3491	0	28425	31609	25540	35370
3492	0	44532	29067	39755	27584
3493	0	35064	36989	36716	42230
3494	0	30208	25618	41452	26624
3495	0	42175	38767	30886	29760
3496	0	39997	31796	41953	26757
3497	0	26963	28621	43681	40609
3498	0	33927	28378	32324	41212
3499	0	36265	33707	42627	33927
3500	0	29910	25225	40251	43670
3501	0	28583	38907	25774	44183
3502	0	31249	44246	30462	42801
3503	0	42989	36451	36649	37779
3504	0	31542	34967	41532	37765
3505	0	42072	32558	31235	28969
3506	0	40511	32868	39803	27669
3507	0	36646	40312	30133	34645
3508	0	25499	35051	34579	36571
3509	0	33660	33528	42024	26638
3510	0	33138	25330	37225	29279
3511	0	38607	27675	43277	39363
3512	0	37424	27249	33595	29940
3513	0	29676	30657	31697	34329
3514	0	27066	25074	41737	38550
3515	0	41960	38362	31126	38211
3516	0	40328	35299	42588	35466
3517	0	30735	31486	29381	37067
3518	0	37189	26982	36583	40698
3519	0	40302	41909	27969	38274
3520	0	29961	39174	38553	27506
3521	0	28609	30203	32895	37838
3522	0	27420	33157	28056	44545
3523	0	44309	30215	31570	41543
3524	0	30209	40004	36588	25252
3525	0	41481	27006	27728	34977
3526	0	35751	27609	41685	30267
3527	0	28888	40572	28426	39218
3528	0	42916	39783	38799	28084
3529	0	30056	37149	41852	36563
3530	0	42341	42971	26232	25600
3531	0	27152	36821	40327	29239
3532	0	32078	44252	31613	39350
3533	0	26187	32178	30700	38535
3534	0	25512	37862	34859	44069
3535	0	44120	26393	35887	30386
3536	0	42168	25225	27738	33717
3537	0	31472	29028	35196	42185
3538	0	35254	28751	38895	40549
3539	0	28030	25447	38836	34178
3540	0	41677	42860	38153	44016
3541	0	32371	38184	34470	28254
3542	0	36786	38760	44697	42727
3543	0	38157	36426	27828	41451
3544	0	31743	27581	41459	38974
3545	0	41584	27670	28870	26969
3546	0	34103	38140	43104	39392
3547	0	27293	40358	32180	32557
3548	0	44871	29334	43823	33162
3549	0	39527	28792	31689	35365
3550	0	33799	41267	30574	32302
3551	0	40876	30593	44620	39125
3552	0	41860	38212	39951	28230
3553	0	31609	28311	44038	38153
3554	0	37579	25947	33641	39541
3555	0	32025	38024	34840	40662
3556	0	38104	29316	44916	29498
3557	0	31150	31023	40799	29176
3558	0	37541	25770	25475	39914
3559	0	41462	40917	34283	38976
3560	0	42243	31398	38998	40982
3561	0	38484	29637	40342	34111
3562	0	44710	33920	41986	34266
3563	0	42449	26228	31771	37270
3564	0	41298	29868	35050	26537
3565	0	29074	37731	29299	25917
3566	0	39857	32039	33297	30069
3567	0	33831	40554	37623	44783
3568	0	30678	34947	29317	39157
3569	0	25550	28857	35376	34421
3570	0	40614	31762	31489	32491
3571	0	30349	25905	26408	31304
3572	0	27952	31655	28237	40432
3573	0	43372	39929	26855	37621
3574	0	37294	29166	35118	37287
3575	0	39364	33775	41543	44694
3576	0	33524	36087	42409	32069
3577	0	38495	41764	27311	33366
3578	0	29956	25598	41775	41579
3579	0	31162	38951	28825	39455
3580	0	26435	33182	28585	33246
3581	0	41556	31060	42836	32477
3582	0	36233	33637	26236	28701
3583	0	39923	38023	36922	35571
3584	0	33722	38098	38069	28474
3585	0	31120	28215	38732	26274
3586	0	26003	34235	27062	36463
3587	0	41316	35411	28225	26019
3588	0	41714	28316	33291	41852
3589	0	42473	27661	26876	43272
3590	0	41659	42738	38385	25840
3591	0	42279	32605	30767	38114
3592	0	33360	25181	32213	38999
3593	0	33545	39266	38977	29192
3594	0	27699	38097	34655	32145
3595	0	28671	28774	44256	43090
3596	0	32417	41966	34295	31708
3597	0	36960	42226	39763	35840
3598	0	42263	33449	39016	27735
3599	0	43426	39436	30383	43620
3600	0	38470	41688	30985	27075
3601	0	39905	27975	43595	34286
3602	0	41887	44300	43860	28142
3603	0	31581	30297	33914	36443
3604	0	40651	33248	38343	31786
3605	0	36726	44027	32673	38294
3606	0	40794	32641	31908	38762
3607	0	33730	39198	33411	25939
3608	0	32785	35707	33748	39603
3609	0	36601	31887	40691	32924
3610	0	39400	28445	29070	44475
3611	0	30660	44495	26923	38071
3612	0	38735	40215	26228	32802
3613	0	37773	32516	38228	37684
3614	0	31783	38092	36923	30103
3615	0	41973	42159	40135	36707
3616	0	39325	29129	30634	37420
3617	0	42595	44382	41503	41326
3618	0	39813	30079	25656	41092
3619	0	27395	31842	36553	39520
3620	0	29320	40812	40530	31041
3621	0	36364	25050	38310	38030
3622	0	35519	37040	29112	27155
3623	0	43784	41233	30039	37400
3624	0	36807	31199	33711	26020
3625	0	25962	42508	26136	28570
3626	0	33007	35615	26531	36123
3627	0	41046	34822	29728	28196
3628	0	31925	37165	41358	38156
3629	0	32379	35003	39964	44512
3630	0	41799	32339	44817	36007
3631	0	41871	33552	35988	40179
3632	0	39688	26926	29801	35723
3633	0	27397	35426	41251	43295
3634	0	38687	34378	32613	31641
3635	0	29577	40973	39047	44425
3636	0	33390	32699	35787	44905
3637	0	36346	26427	36483	29094
3638	0	43583	28346	33384	36466
3639	0	37879	36428	39532	34033
3640	0	33298	42039	30103	28439
3641	0	30962	39642	44776	42375
3642	0	27933	36916	31800	30926
3643	0	28820	44030	34423	26134
3644	0	30670	28542	34063	36761
3645	0	28046	26394	40669	39079
3646	0	32443	34935	39340	34923
3647	0	26056	41310	35781	25522
3648	0	36502	38965	34712	33957
3649	0	32852	29917	27661	29871
3650	0	41088	40228	38511	25869
3651	0	33304	26622	36502	32486
3652	0	37935	27531	28861	27127
3653	0	42108	32222	35415	42161
3654	0	28432	35169	44609	35416
3655	0	40771	25960	27982	44192
3656	0	26996	25998	43007	36996
3657	0	37384	28348	27097	31145
3658	0	27700	39089	30422	37571
3659	0	34396	40445	28213	44654
3660	0	28280	32793	39627	32894
3661	0	42449	29989	42678	44327
3662	0	33061	41161	30600	31023
3663	0	28019	33875	34778	42112
3664	0	43112	42074	40065	35768
3665	0	41803	27719	26956	43890
3666	0	30162	27094	28740	32044
3667	0	39523	35753	34226	27356
3668	0	34658	33098	42513	39665
3669	0	35725	44849	39173	41320
3670	0	32011	41184	40501	38079
3671	0	26691	32145	39167	31477
3672	0	26216	31999	42488	36250
3673	0	37249	30327	28557	42900
3674	0	31265	34139	28944	43834
3675	0	34615	29549	38509	28264
3676	0	32118	32408	43561	34203
3677	0	30026	30198	44499	31501
3678	0	43098	39946	39842	40810
3679	0	42886	34203	41853	28956
3680	0	36680	27545	38226	25473
3681	0	30701	39125	28003	31154
3682	0	26131	27118	33991	44126
3683	0	26549	37014	25117	34280
3684	0	28937	38687	34622	43398
3685	0	34818	44576	30170	31098
3686	0	39401	32458	30662	29958
3687	0	39006	38773	35370	44804
3688	0	35980	41973	33408	35403
3689	0	38622	40822	43562	39024
3690	0	27879	30262	40916	26362
3691	0	38740	31976	31542	29587
3692	0	32611	44170	38505	36154
3693	0	35048	37963	36298	35882
3694	0	40375	44386	33005	37494
3695	0	29366	25631	37930	28214
3696	0	33086	37111	30591	42807
3697	0	28524	34477	39103	26219
3698	0	41769	35313	39183	38912
3699	0	36496	33420	44588	30446
3700	0	42542	29024	40765	37159
3701	0	40131	27059	30781	40806
3702	0	28999	27108	36715	27686
3703	0	29380	43509	40357	43730
3704	0	30904	26156	25255	26299
3705	0	26445	32846	35584	31870
3706	0	26316	40513	28886	27794
3707	0	33959	26334	36560	41813
3708	0	37843	44513	32874	40034
3709	0	34925	28226	44124	30218
3710	0	29081	41946	34036	39401
3711	0	30118	43348	35781	36481
3712	0	29552	35873	39323	38031
3713	0	44642	36231	38194	31822
3714	0	31481	37942	41652	28038
3715	0	36412	43718	31409	32539
3716	0	28957	36009	26326	33824
3717	0	28017	43715	30107	36962
3718	0	41349	36197	41176	28773
3719	0	42575	27613	39991	39686
3720	0	42702	28176	29189	39487
3721	0	33272	27968	40381	33784
3722	0	32174	26259	25333	28293
3723	0	27418	44972	29964	38994
3724	0	37242	32558	44689	30879
3725	0	35721	36898	30011	33248
3726	0	38124	36692	39569	35735
3727	0	25634	28899	43908	36161
3728	0	38764	36683	27059	35260
3729	0	41293	43135	29925	37047
3730	0	36771	25090	32114	40016
3731	0	38522	33152	31113	39002
3732	0	37481	25956	26216	39667
3733	0	29099	28117	33121	38603
3734	0	39267	29009	38466	33599
3735	0	44315	25893	25804	29711
3736	0	38214	28505	33485	39715
3737	0	30484	33708	27151	40887
3738	0	35556	38766	40562	37312
3739	0	34549	31406	42135	42488
3740	0	34855	31531	25171	41232
3741	0	29954	43739	34438	30724
3742	0	41836	33021	32504	42904
3743	0	25967	38127	25321	44382
3744	0	30646	42774	43318	44827
3745	0	29240	29400	43698	41055
3746	0	30808	39441	32987	27270
3747	0	31453	27247	37321	31869
3748	0	44946	31724	41536	28376
3749	0	27219	38052	31323	36665
3750	0	40850	36843	44386	38288
3751	0	25718	33243	39174	29979
