# OpenSignals Text File Format. Version 1					
"# {""00:07:80:65:E0:2A"": {""position"": 0, ""device"": ""biosignalsplux"", ""device name"": ""00:07:80:65:E0:2A"", ""device connection"": ""BTH00:07:80:65:E0:2A"", ""sampling rate"": 1000, ""resolution"": [16, 16, 16, 16], ""firmware version"": 775, ""comments"": """", ""keywords"": """", ""mode"": 2, ""sync interval"": 2, ""date"": ""2022-2-10"", ""time"": ""17:19:13.655"", ""channels"": [1, 2, 3, 4], ""sensor"": [""EMG"", ""EMG"", ""EDA"", ""ECG""], ""label"": [""CH1"", ""CH2"", ""CH3"", ""CH4""], ""column"": [""nSeq"", ""DI"", ""CH1"", ""CH2"", ""CH3"", ""CH4""], ""special"": [{""SpO2"": [80, 40, 5, 4, 3, 3]}, {""SpO2"": [80, 40, 5, 4, 3, 3]}, {""SpO2"": [80, 40, 5, 4, 3, 3]}, {""SpO2"": [80, 40, 5, 4, 3, 3]}, {""SpO2"": [80, 40, 5, 4, 3, 3]}, {""SpO2"": [80, 40, 5, 4, 3, 3]}, {""SpO2"": [80, 40, 5, 4, 3, 3]}, {""SpO2"": [80, 40, 5, 4, 3, 3]}], ""digital IO"": [0, 1], ""sleeve color"": [""dark_blue"", ""red"", ""yellow"", ""red""], ""convertedValues"": 0}}"					
# EndOfHeader					
1	1	36129	40866	26630	36660
2	1	35965	39364	30830	28131
3	1	37615	36852	31033	35385
4	1	31749	39525	43073	31836
5	1	33200	44675	29029	39392
6	1	44632	30694	25517	26116
7	1	38718	25646	44972	29068
8	1	39890	31204	41964	38429
9	1	25189	42756	36351	41080
10	1	40618	30104	36253	43477
11	1	32734	34282	38539	37456
12	0	38694	37946	42803	25551
13	0	39464	32051	44760	43518
14	0	28083	28362	25625	38035
15	0	25684	41555	33383	36309
16	0	42518	33840	29385	29779
17	0	30181	30470	43627	34344
18	0	27536	35577	35228	26272
19	0	44835	29304	42315	39897
20	0	38843	41895	32386	28678
21	0	42780	30804	38772	34752
22	0	42740	33817	39471	35980
23	0	25762	31313	41330	38163
24	0	27787	26316	44897	28773
25	0	38044	41511	35528	38619
26	0	42596	38675	41751	40189
27	0	27464	35147	44610	41628
28	0	31096	32553	38306	35056
29	0	34284	38177	42588	43575
30	0	37271	42120	34336	43459
31	0	40643	42293	38385	29361
32	0	41210	44888	27431	30591
33	0	37829	43965	43906	29387
34	0	41366	37379	44560	31885
35	0	25272	31990	40567	29862
36	0	39844	32338	36157	42035
37	0	38850	42548	26042	32235
38	0	39939	26755	30757	36490
39	0	36299	36973	41320	25077
40	0	42672	34698	40973	30127
41	0	36910	28694	41514	30022
42	0	36127	28225	37267	35874
43	0	26635	42568	26546	36345
44	0	29850	35718	28258	37573
45	0	31005	38686	40032	26403
46	0	38920	44062	28527	36112
47	0	36146	36708	37595	43196
48	0	38313	26137	42941	37420
49	0	39326	40578	34599	32025
50	0	28037	25573	25448	40802
51	0	33740	37175	26735	26466
52	0	30014	42891	41432	42113
53	0	31660	36018	28266	41123
54	0	31776	28093	39663	29284
55	0	33682	39021	43975	37762
56	0	34318	34974	33060	31296
57	0	27991	27572	43078	41354
58	0	44823	27510	36920	43122
59	0	36149	41998	38104	40347
60	0	44025	32996	30489	34400
61	0	44016	35457	27597	33725
62	0	44142	40464	25375	40558
63	0	36130	39865	35746	42676
64	0	34378	25491	44921	38783
65	0	40809	40496	37764	41303
66	0	26464	25371	29251	38671
67	0	41881	29972	39669	28498
68	0	26536	31733	25871	40158
69	0	37947	30276	40866	37273
70	0	29118	34311	27284	37192
71	0	34364	29577	39764	33507
72	0	41752	41461	40750	38457
73	0	41281	35815	29340	43553
74	0	37114	42175	38608	43952
75	0	26507	29711	29879	29465
76	0	28652	42623	27091	43462
77	0	26278	31339	25609	34791
78	0	39459	33334	31616	31113
79	0	32883	35918	35364	43139
80	0	41763	40813	35414	44886
81	0	43168	31603	36254	27758
82	0	34573	44463	34637	29240
83	0	32267	35475	38786	33666
84	0	35052	42174	32880	40732
85	0	31449	37069	44564	42814
86	0	25631	35709	25856	28658
87	0	42733	37338	27568	35050
88	0	29428	30093	36910	38607
89	0	31035	33090	32323	28877
90	0	43609	26933	33986	28868
91	0	31686	42214	33307	39365
92	0	38918	33728	38317	41029
93	0	38831	31918	44401	25657
94	0	43331	34955	40838	43570
95	0	42880	30669	37594	41265
96	0	38911	29322	42268	32324
97	0	29015	41888	27264	26509
98	0	42583	28151	39180	30472
99	0	29377	29345	25097	42174
100	0	33489	41076	42300	43934
101	0	30903	27135	25612	42850
102	0	35734	38889	26811	42526
103	0	42608	33226	43774	33979
104	0	30060	44359	25104	30988
105	0	27635	32081	39606	37953
106	0	31606	34200	35303	43265
107	0	27536	30706	28185	35102
108	0	38121	32692	36069	25781
109	0	41270	38282	42510	42970
110	0	44347	38112	34356	26552
111	0	44868	44609	44632	30113
112	0	30230	41178	28500	39267
113	0	27199	29422	40962	41544
114	0	29386	35983	35235	28202
115	0	30993	35224	40621	25593
116	0	41881	25023	42799	43964
117	0	37139	27687	42439	28708
118	0	43177	30406	31507	25373
119	0	34293	26287	44913	44923
120	0	42766	28215	35473	39385
121	0	43967	31312	29128	40521
122	0	38896	44442	31638	44217
123	0	43152	35527	26326	25406
124	0	39710	36811	38366	41853
125	0	37350	27670	26277	30049
126	0	44109	36762	36391	41632
127	0	43449	28819	41584	34511
128	0	38302	39211	33386	30855
129	0	36467	30908	41408	29498
130	0	33670	44956	44837	43064
131	0	28610	42507	25866	38500
132	0	35683	32188	41092	31763
133	0	28495	35779	25798	27504
134	0	35027	29950	31267	32155
135	0	32207	32103	43010	32652
136	0	35988	39564	41644	32242
137	0	27445	37755	30601	26331
138	0	44018	42157	43722	31769
139	0	42435	33971	43296	25106
140	0	43117	25562	44461	28684
141	0	43705	35220	36849	25769
142	0	40812	43540	39652	29767
143	0	33072	44788	41580	41153
144	0	29263	38310	41698	33288
145	0	29740	25573	33756	40113
146	0	33486	37792	27395	26758
147	0	38008	37166	32006	37393
148	0	30091	31553	38477	39582
149	0	27681	42977	27536	30879
150	0	25778	36392	32186	43342
151	0	39430	41640	25005	26497
152	0	44597	30873	26018	29906
153	0	43545	27020	40960	31943
154	0	37486	29391	30816	37267
155	0	42512	38024	32701	40939
156	0	37752	32703	43641	25824
157	0	26836	25827	42625	42849
158	0	41972	25181	30966	27727
159	0	39471	26628	42026	38592
160	0	40714	43931	39224	44564
161	0	31260	37413	26955	29745
162	0	25563	35548	32844	28382
163	0	31732	39719	35151	35613
164	0	33406	38594	27079	42528
165	0	27681	27063	38195	44808
166	0	41393	27209	35255	44252
167	0	37317	31085	26706	40689
168	0	35433	36852	36704	36163
169	0	30556	36319	41230	36801
170	0	36675	39275	32369	43096
171	0	30087	29343	27394	39898
172	0	35326	28889	28204	36443
173	0	43439	42193	43752	34560
174	0	35536	36362	27598	33483
175	0	37699	39120	44803	30066
176	0	33248	26521	33743	30343
177	0	30556	30927	43402	41269
178	0	32614	40812	44145	44278
179	0	38670	31462	31499	26271
180	0	40269	28123	36670	33647
181	0	28058	41287	32706	35766
182	0	34108	30726	30013	25780
183	0	34920	39813	28243	30434
184	0	35818	44655	37646	35514
185	0	34185	26274	32083	32760
186	0	41049	44931	41491	28784
187	0	32472	43970	38335	35776
188	0	38871	30203	44372	43130
189	0	34020	41094	35776	35131
190	0	34119	30089	38268	34206
191	0	28046	32999	32075	25092
192	0	44701	35312	38069	37070
193	0	39287	34878	29596	43765
194	0	30334	36171	43410	27779
195	0	42006	40845	32219	29032
196	0	34905	43984	38954	28369
197	0	28974	40159	39283	38103
198	0	40283	33448	29347	39877
199	0	25777	27798	29226	44768
200	0	29992	43733	25210	30189
201	0	38621	28107	28150	40127
202	0	38539	34124	25715	34029
203	0	43074	36396	42657	31785
204	0	36987	37674	40867	43489
205	0	30362	42575	40304	36200
206	0	27213	41106	38936	28104
207	0	39634	30296	43517	43843
208	0	35500	43094	27771	37682
209	0	37027	34322	32016	29259
210	0	31214	44543	29815	37565
211	0	26985	30824	33933	30966
212	0	25812	30159	37587	31718
213	0	28518	40980	41716	42117
214	0	38063	40199	44103	36964
215	0	27025	40675	41679	27250
216	0	39910	28007	30537	31553
217	0	34613	26728	25576	30435
218	0	40156	42878	31711	41958
219	0	35302	25288	35728	27061
220	0	29488	37576	44561	44563
221	0	34859	38720	38278	29221
222	0	43989	35736	29193	35651
223	0	27613	32693	33349	39965
224	0	29954	27446	44582	28549
225	0	35955	34884	25735	43482
226	0	39605	34233	27533	43029
227	0	35108	31744	32156	26129
228	0	37766	26443	35249	39748
229	0	34002	41237	30320	43489
230	0	40959	27318	42150	43480
231	0	42359	36624	28334	25772
232	0	29970	34285	40061	25183
233	0	25506	31093	32787	44289
234	0	39810	43401	44646	42042
235	0	25401	40483	43834	44282
236	0	33651	28406	42999	39456
237	0	44151	37525	40326	28860
238	0	39526	29270	36601	27239
239	0	36263	28411	31235	34582
240	0	27779	31665	39841	34919
241	0	44348	43002	40254	35997
242	0	26714	28958	36787	29515
243	0	39165	38086	37499	32032
244	0	30514	34997	31066	35722
245	0	36208	32088	42263	38043
246	0	40474	31543	37305	41850
247	0	38772	42585	42697	37627
248	0	26997	42960	34480	30197
249	0	30446	28950	25828	32285
250	0	39777	33809	30704	35054
251	0	32980	32911	33511	28433
252	0	37752	31275	37637	36305
253	0	44892	41633	40166	40556
254	0	36977	30309	43954	35461
255	0	42886	27777	38472	30131
256	0	35007	40194	39460	31793
257	0	35360	38148	29081	42170
258	0	38513	39808	37328	41765
259	0	43746	34829	38892	31111
260	0	30476	43089	31618	27057
261	0	30085	26755	27750	27371
262	0	43536	43366	32113	43446
263	0	27226	39434	31399	32942
264	0	30555	44993	34083	39981
265	0	39266	43816	33824	41263
266	0	25764	32928	40949	35135
267	0	29702	30194	40367	33929
268	0	39003	37983	30619	31128
269	0	35477	35272	43559	32178
270	0	29218	31513	25870	31518
271	0	27866	25755	42228	27520
272	0	27454	42849	28830	34179
273	0	41674	38406	27540	42502
274	0	42973	38167	28260	41662
275	0	33712	44686	43095	38443
276	0	29440	25532	41808	27876
277	0	35239	33271	27120	44788
278	0	30003	27604	42575	36826
279	0	37540	40529	36942	35347
280	0	27554	33971	33783	25745
281	0	32843	38415	25526	26904
282	0	29088	25836	39248	34077
283	0	36618	40880	32836	28369
284	0	42685	35242	26357	39119
285	0	42783	34893	28245	33019
286	0	38966	31797	25515	26649
287	0	41305	28229	28435	40900
288	0	40005	44925	43850	27260
289	0	42686	31857	25357	28688
290	0	25889	41905	30142	36741
291	0	35193	41232	26863	41294
292	0	25430	35664	43686	42880
293	0	32722	33206	32746	32780
294	0	43890	34815	31468	32200
295	0	44409	26349	36746	33014
296	0	26517	33447	31019	43819
297	0	36860	38642	40071	29536
298	0	31506	28398	39815	36401
299	0	38277	39559	32956	30569
300	0	32335	32844	35457	29548
301	0	26602	29744	38001	36713
302	0	43523	44165	26931	42247
303	0	30073	41423	34365	25604
304	0	42894	27051	44874	30679
305	0	38800	43954	42430	27806
306	0	34426	34059	26543	29717
307	0	34886	43253	25580	33793
308	0	38792	44228	38688	37165
309	0	35881	41140	43625	34926
310	0	38869	35814	37871	26735
311	0	36513	40438	38038	26395
312	0	32209	31233	25422	28261
313	0	42254	33310	39157	44730
314	0	43546	28252	34967	25806
315	0	44441	37756	27281	37568
316	0	37011	33219	29583	28758
317	0	38790	42091	40898	42648
318	0	31142	31980	41976	33715
319	0	28840	32726	42163	26143
320	0	37260	36444	29446	42693
321	0	42096	35141	37744	29369
322	0	26048	34787	33562	28985
323	0	36717	26701	35409	41221
324	0	36248	25591	34454	42450
325	0	29956	27011	42167	33478
326	0	39428	41540	42196	36320
327	0	30593	32399	25149	31562
328	0	39644	25234	30896	27258
329	0	25802	31436	37881	42402
330	0	40743	43925	41527	40213
331	0	43574	38610	25572	34279
332	0	43685	37806	41491	42460
333	0	43049	34002	40574	29010
334	0	40027	37488	36730	38963
335	0	32420	25324	40656	27976
336	0	27466	41757	27478	40888
337	0	33276	31846	39218	37460
338	0	44240	42495	41696	37589
339	0	25749	43778	25172	38658
340	0	27178	33812	39238	31195
341	0	27081	34577	43242	32962
342	0	41590	30389	31656	36377
343	0	30263	40466	31739	37278
344	0	41652	34581	36873	36789
345	0	32583	33713	26529	35978
346	0	28693	43470	36300	26135
347	0	37432	28806	27138	31582
348	0	42611	38026	31039	25785
349	0	33795	26384	37663	36859
350	0	32617	31553	33096	28072
351	0	38059	26921	37172	38556
352	0	39635	39389	32629	36887
353	0	32937	28718	26734	44966
354	0	29915	43920	39230	41511
355	0	41899	27560	37719	43915
356	0	28518	43572	35071	36944
357	0	39637	41947	41260	36207
358	0	27255	39243	30798	44288
359	0	42967	43976	40159	27685
360	0	42503	27222	33273	39731
361	0	29959	42012	40491	43083
362	0	36099	30791	26473	25165
363	0	37811	33011	33392	43307
364	0	25739	28283	31711	39983
365	0	34591	38847	36230	44368
366	0	42774	40072	41126	27020
367	0	39243	37763	32604	38799
368	0	29577	29561	27367	27326
369	0	36286	44354	26511	35982
370	0	29780	40666	28932	28174
371	0	37165	36675	42029	34486
372	0	36970	28144	40260	43773
373	0	41229	34471	33774	31350
374	0	40401	33984	29870	31798
375	0	42130	30621	40519	30850
376	0	33093	30185	39374	40285
377	0	42398	40939	39453	27557
378	0	28740	29356	34204	29578
379	0	40213	35698	40992	31088
380	0	43663	25869	40787	25183
381	0	30476	28493	34630	39708
382	0	34334	26491	35540	27022
383	0	34601	40000	31656	26065
384	0	42179	32327	38536	39432
385	0	42784	40460	40213	27531
386	0	39499	42526	39562	37821
387	0	33128	34911	28257	25001
388	0	31984	38126	33909	37580
389	0	38075	36805	34760	38368
390	0	38721	31133	41133	43233
391	0	29021	43075	34301	37098
392	0	40145	26251	35240	38929
393	0	27167	32990	39162	30173
394	0	33191	30618	31337	37949
395	0	25694	43390	40547	38184
396	0	36244	36639	41601	39803
397	0	29203	32425	34658	31763
398	0	37114	43733	32797	30813
399	0	28030	28662	27411	32959
400	0	39243	34726	33914	33757
401	0	31709	32169	40598	27550
402	0	41585	30899	39939	36601
403	0	37082	41051	35219	27841
404	0	44791	39144	25371	42511
405	0	28716	39025	41741	38053
406	0	32232	41756	25534	41600
407	0	26705	27804	28794	41046
408	0	33117	43331	39177	42608
409	0	32208	39244	36940	39774
410	0	35446	33858	40276	30665
411	0	35548	34438	39402	28909
412	0	36909	32905	31794	26511
413	0	44020	42270	32824	30960
414	0	25434	29848	32047	27315
415	0	26623	37316	30146	28019
416	0	28137	40368	34939	42249
417	0	32472	40546	42442	28015
418	0	39170	42111	37847	32619
419	0	29043	41110	26602	28160
420	0	42789	44593	43984	29721
421	0	35653	31142	38369	30426
422	0	34820	33471	35407	44518
423	0	40157	34528	32707	31392
424	0	31374	29911	41443	42554
425	0	31867	37285	38807	43762
426	0	40643	40996	35786	31992
427	0	42066	29478	32970	38392
428	0	32944	43577	30399	29134
429	0	27311	31942	36808	37883
430	0	42859	29147	38506	43714
431	0	39726	33393	37838	41138
432	0	33917	33318	33858	27914
433	0	25216	38157	29390	33470
434	0	28951	32007	29396	32148
435	0	32520	25705	33740	36771
436	0	44880	43930	43797	38252
437	0	40884	39645	32027	37711
438	0	34889	40265	39384	36126
439	0	29631	37740	37487	26954
440	0	25882	27493	32176	33323
441	0	39175	33148	27422	38808
442	0	40634	27073	43560	29213
443	0	44253	34969	31419	31824
444	0	43076	39820	33165	38243
445	0	39146	36749	32552	42267
446	0	35095	42023	33054	41051
447	0	29528	39326	42320	32524
448	0	36762	31034	34419	35423
449	0	29970	40213	33773	40573
450	0	39944	37350	27574	44882
451	0	40235	35264	37363	29169
452	0	43864	34095	31728	29890
453	0	25201	38197	29742	32254
454	0	40427	29440	30395	25798
455	0	35082	30855	34933	32699
456	0	34211	42157	36296	35377
457	0	38147	32920	42617	34036
458	0	26371	33604	42663	31607
459	0	32652	34356	41684	38815
460	0	39131	27702	31046	32764
461	0	25918	40296	26740	43076
462	0	28383	36189	25948	41199
463	0	25181	42472	27281	25263
464	0	25480	35981	25023	41292
465	0	28148	41010	40629	42892
466	0	27235	32442	31599	44875
467	0	29145	33269	29042	37503
468	0	35049	28316	26825	29351
469	0	29049	28473	25382	35977
470	0	36151	38759	36769	36419
471	0	30981	40589	43026	29207
472	0	41117	40938	42004	26520
473	0	44959	39365	28329	43709
474	0	29258	31301	28221	30272
475	0	25023	38188	38026	43420
476	0	37928	42014	32093	38666
477	0	44562	42708	28538	42829
478	0	35714	41934	32160	26434
479	0	26541	27623	31796	35067
480	0	25145	39903	29445	25090
481	0	26196	38801	36833	35842
482	0	41238	37839	25105	35634
483	0	38336	29999	34190	42862
484	0	32580	28172	31652	43672
485	0	39695	38572	30988	32099
486	0	42554	27595	36271	36419
487	0	32444	30487	30581	37704
488	0	39204	26698	44704	33430
489	0	39007	31813	41979	28201
490	0	37681	38711	37822	32124
491	0	32395	26347	37463	43586
492	0	32060	37427	33963	43854
493	0	40385	32494	33209	31941
494	0	35287	38504	37644	37756
495	0	32583	43652	36563	35210
496	0	42285	44704	32008	25824
497	0	33000	35739	30180	35544
498	0	44934	36023	42831	40603
499	0	36242	34230	33379	42896
500	0	29977	40404	38338	34294
501	0	32304	29112	33586	41243
502	0	42347	32804	38973	35973
503	0	44518	26299	30030	27720
504	0	36102	33460	33435	36421
505	0	36621	26119	28775	31711
506	0	40333	32214	39275	28988
507	0	41549	33316	44019	37466
508	0	30977	29359	37343	30559
509	0	32141	41563	25354	36426
510	0	37449	38564	39504	38216
511	0	36678	39389	27468	29926
512	0	38912	36339	42402	32525
513	0	39422	29246	32573	42388
514	0	29980	33664	39618	27560
515	0	37978	41750	32676	43603
516	0	38730	26513	25742	29198
517	0	26501	26598	31544	40085
518	0	29067	33012	42320	41760
519	0	29912	36912	44312	31025
520	0	32179	37555	37491	25662
521	0	31187	31887	32950	32311
522	0	40760	38222	30467	27639
523	0	37228	36995	41706	43984
524	0	44503	39359	26472	33534
525	0	38144	37969	33737	32853
526	0	27980	32904	37025	31467
527	0	36429	41335	37365	32592
528	0	36442	29327	41570	44776
529	0	40574	25665	30215	44755
530	0	30045	32071	44048	44345
531	0	28957	34436	29990	41536
532	0	44232	35932	27736	32150
533	0	36328	32085	28305	43090
534	0	31171	28627	29020	30426
535	0	33878	35510	41031	31680
536	0	34975	38245	25801	44240
537	0	42357	44916	42460	44871
538	0	37594	27938	38936	44886
539	0	28231	40073	34134	32076
540	0	44698	44987	37613	30558
541	0	43333	28254	33816	31821
542	0	28130	27826	36748	33502
543	0	34382	43773	27990	43097
544	0	38157	34707	35815	38467
545	0	39413	35810	34040	42815
546	0	29711	40593	34556	42225
547	0	28132	27108	31170	31839
548	0	35904	36536	36476	35330
549	0	30886	28726	30526	41101
550	0	35438	37303	30434	34924
551	0	27469	33900	32487	43047
552	0	27404	32972	40884	30980
553	0	39019	41240	34203	40897
554	0	38121	35909	26920	35467
555	0	31325	36408	32775	28996
556	0	43280	26794	40216	33314
557	0	35861	43495	44430	34012
558	0	32401	42758	29157	41479
559	0	44963	37661	31873	33903
560	0	41178	35344	43448	40719
561	0	40152	41279	37312	25805
562	0	36382	39105	29927	30251
563	0	27424	33309	39534	26001
564	0	34700	27034	36952	37258
565	0	34704	34723	28555	36568
566	0	33469	36808	40603	30611
567	0	35746	40858	35058	40434
568	0	43471	37414	28649	38409
569	0	43493	37235	35434	26094
570	0	28791	27143	38235	39072
571	0	38135	28989	28373	27515
572	0	26501	44642	42520	42490
573	0	27942	42661	27203	39620
574	0	39009	33619	42507	33395
575	0	41556	32874	37232	38251
576	0	26196	35815	38438	37437
577	0	37376	32522	32738	44124
578	0	32088	36617	37379	25748
579	0	39327	35949	43552	38178
580	0	32534	39681	31505	34709
581	0	28490	32567	32653	29304
582	0	41662	33337	37201	42476
583	0	38084	36978	27664	42506
584	0	37759	38095	34409	43134
585	0	26599	34706	43056	38203
586	0	40096	25793	40777	39582
587	0	44211	42216	33983	40798
588	0	41894	41002	36321	39418
589	0	40701	32174	30065	38885
590	0	28489	44549	44201	25934
591	0	38302	35159	34392	37826
592	0	38578	35455	40185	25106
593	0	25221	31780	39170	32339
594	0	31182	40746	39499	40525
595	0	39669	38140	44407	32009
596	0	38571	32991	26417	31915
597	0	27267	34136	40059	41002
598	0	43038	28349	38638	26125
599	0	38818	35622	30514	42503
600	0	26822	42755	28543	37913
601	0	32934	41377	40497	36518
602	0	27254	32098	36488	29555
603	0	44860	40020	38837	43509
604	0	29051	38372	27087	32351
605	0	37650	39462	25509	44801
606	0	29461	31430	43412	42865
607	0	35774	30598	39394	43761
608	0	26189	36915	39682	32939
609	0	29278	29222	38836	27349
610	0	44639	30607	35927	38874
611	0	36296	37304	34648	31254
612	0	37298	26451	31908	25603
613	0	27329	38037	40252	37241
614	0	31507	29761	30156	32488
615	0	38447	35054	29817	31251
616	0	44463	42149	37624	41114
617	0	37361	41584	41222	43390
618	0	40352	34193	32491	44190
619	0	44369	32625	38147	43043
620	0	41999	25273	25375	26553
621	0	34316	31521	40330	38675
622	0	33331	29032	43572	25938
623	0	33184	34530	30421	40406
624	0	35943	38928	44599	27192
625	0	43370	39897	44021	28693
626	0	29923	41952	36064	40385
627	0	36742	28025	34063	35838
628	0	41428	27463	27800	40855
629	0	26829	28069	40357	34072
630	0	39046	33878	36036	33045
631	0	27557	39065	38251	37474
632	0	31274	39290	32841	28747
633	0	42331	42334	28724	28622
634	0	26570	42158	40659	26721
635	0	43500	35220	38059	41408
636	0	40546	38599	37101	33722
637	0	27603	32722	35640	35649
638	0	27280	37709	27937	43727
639	0	43977	31985	40702	38576
640	0	39731	29749	25240	41228
641	0	31668	29211	41758	34251
642	0	31713	25005	33686	43214
643	0	33875	31392	41690	35307
644	0	25862	30094	43600	25447
645	0	34534	37857	25369	29562
646	0	35494	25365	30591	31561
647	0	30107	26948	41839	34591
648	0	34739	32478	29974	43936
649	0	39704	40202	26689	38319
650	0	43936	25369	27250	35976
651	0	43974	42689	32198	43072
652	0	43229	38556	39649	42443
653	0	27432	38745	33086	32730
654	0	41354	30078	36371	41840
655	0	28709	31086	39691	43169
656	0	30766	37343	35730	44480
657	0	30470	43732	25131	44704
658	0	29078	43991	31188	29899
659	0	33637	43727	41007	31756
660	0	34487	40244	26320	29517
661	0	38635	37418	36539	39026
662	0	25346	28012	32214	39021
663	0	39364	44404	31504	32667
664	0	43806	42972	33265	30314
665	0	30436	38307	32123	40753
666	0	33335	44024	27149	37375
667	0	43426	35571	31344	30152
668	0	33463	37070	36831	43867
669	0	25815	37014	25280	31884
670	0	29100	39908	38007	35611
671	0	37758	29262	26123	39046
672	0	35562	29201	26936	35368
673	0	26271	35022	37885	31430
674	0	34148	30451	40678	36968
675	0	34622	35055	35542	28008
676	0	26713	37611	27749	44704
677	0	27896	25552	41579	37392
678	0	39918	28543	36118	26635
679	0	37553	38783	31179	30842
680	0	41707	39151	34030	40820
681	0	44147	37113	44880	29316
682	0	43638	38220	33728	30169
683	0	29066	39536	36096	27339
684	0	38812	36065	25957	38973
685	0	36725	42092	28345	35261
686	0	38644	39400	41651	43342
687	0	26438	36309	43595	37144
688	0	30393	40029	29414	30315
689	0	41448	43603	37005	31809
690	0	33832	25230	29002	29029
691	0	32332	43205	40085	29435
692	0	44852	41238	43956	42266
693	0	29885	40913	38319	43534
694	0	37423	43793	40612	30472
695	0	31876	44465	36585	33576
696	0	27269	40859	38418	31727
697	0	36964	31852	26745	41406
698	0	37977	32079	30502	27606
699	0	35837	25810	26568	31442
700	0	30386	29796	40883	34266
701	0	34238	42919	41260	44354
702	0	40605	28790	30477	38556
703	0	28713	28577	31037	31107
704	0	41436	37583	41993	31687
705	0	42547	31989	30533	40960
706	0	25546	44899	44516	41716
707	0	33119	25610	27425	34771
708	0	40475	28999	38635	29667
709	0	42798	29588	35564	34951
710	0	31263	33530	37243	25018
711	0	43697	35705	42347	44308
712	0	30259	42190	44988	37286
713	0	38155	41534	32224	26221
714	0	26927	36259	37900	41093
715	0	33951	37932	36971	29514
716	0	35630	29525	33654	36274
717	0	25535	35039	32123	39463
718	0	26251	27647	42965	35828
719	0	33297	40786	32596	32992
720	0	27954	41959	39115	34864
721	0	33609	44821	30861	31431
722	0	30532	42872	30268	26019
723	0	31469	42232	44463	27238
724	0	37264	34368	37222	41751
725	0	42354	26287	35140	31496
726	0	29814	25933	28461	40579
727	0	32431	25342	29589	41752
728	0	35961	25437	25081	43385
729	0	34216	25146	37121	33959
730	0	35564	32861	25365	26930
731	0	29878	29783	38333	42513
732	0	25414	36910	27224	37615
733	0	43999	44012	32570	40867
734	0	30439	39019	44115	30715
735	0	36893	25081	38163	41000
736	0	27744	41600	25012	25164
737	0	26311	29294	40088	30215
738	0	28965	43072	38019	30178
739	0	39971	44183	35443	32365
740	0	32341	35611	35072	29598
741	0	28114	38017	36240	32605
742	0	35886	44314	36977	38010
743	0	43473	37651	27605	31647
744	0	39980	29684	29175	44652
745	0	42999	43245	35483	37520
746	0	30507	35943	30627	32682
747	0	40341	43033	41619	27711
748	0	29019	34792	39984	27545
749	0	40677	28949	41434	41414
750	0	32095	25055	32281	27710
751	0	40906	27369	41178	33472
752	0	32829	26241	26547	36322
753	0	37751	25500	28986	29324
754	0	41158	27136	32795	33034
755	0	43243	35574	35107	38524
756	0	26273	44131	34127	37833
757	0	34455	35437	42578	37107
758	0	29879	40213	29274	32788
759	0	28278	36375	28163	28875
760	0	26677	28577	42915	36581
761	0	42449	26818	38451	34003
762	0	31921	43554	27592	40654
763	0	26115	39814	26301	44979
764	0	36356	44739	30545	27966
765	0	31781	29582	38539	29380
766	0	30085	33194	29569	29454
767	0	33948	44501	37006	41522
768	0	25927	27700	32071	41252
769	0	34119	41844	33983	41031
770	0	42947	40041	38876	26431
771	0	27265	33257	35411	35410
772	0	27327	31517	41817	33019
773	0	35695	37854	40600	39451
774	0	32397	26569	36082	43259
775	0	28529	27193	44899	26924
776	0	31625	36583	28581	35441
777	0	40508	39220	26000	42941
778	0	33035	42024	25181	31764
779	0	27559	25651	40361	29564
780	0	25694	34614	34504	33027
781	0	25937	28934	33370	39736
782	0	32760	38499	27785	39530
783	0	28643	34561	30584	31289
784	0	25549	41755	37855	30546
785	0	44667	30126	32261	28755
786	0	39994	42059	40553	38317
787	0	28681	38366	25353	35425
788	0	44575	38875	25600	34869
789	0	42015	44963	38853	40623
790	0	34317	41475	26360	35444
791	0	29975	31110	34076	43079
792	0	27336	38737	28211	26050
793	0	38310	40607	44044	43454
794	0	33229	30179	37576	40516
795	0	26247	44242	26681	32559
796	0	29270	44630	27904	37873
797	0	32688	29257	28663	30828
798	0	42441	33836	34631	42900
799	0	30551	25276	39326	26378
800	0	32743	44285	28874	29614
801	0	41468	34115	26928	35272
802	0	32523	39062	44941	37567
803	0	40182	43873	43337	33609
804	0	39942	32186	38872	30181
805	0	28096	34398	34370	39410
806	0	31873	42091	42765	38199
807	0	39726	38296	26833	35600
808	0	39716	36160	41788	43588
809	0	42240	32170	27157	25375
810	0	41414	25940	42389	44948
811	0	39890	41328	42040	41371
812	0	34781	43675	30931	44830
813	0	44219	29082	25027	42610
814	0	40264	33060	34355	29483
815	0	26624	39017	33171	30747
816	0	29635	41231	33079	31723
817	0	34584	33610	39710	34602
818	0	33155	38635	27965	33516
819	0	43572	31463	27601	35334
820	0	33809	26662	40791	26736
821	0	41982	36423	26989	29561
822	0	27889	44542	26277	29346
823	0	42885	27476	44062	41798
824	0	42435	38400	38313	33637
825	0	39990	33330	30358	38856
826	0	43070	29584	35592	43617
827	0	31857	34480	33783	38834
828	0	38652	41058	43846	33651
829	0	30466	26180	40380	33295
830	0	42390	42061	38776	42141
831	0	26313	36086	32061	42295
832	0	44134	39555	25996	36731
833	0	41723	40851	25013	25589
834	0	33899	31750	27790	43950
835	0	27637	37256	30470	43832
836	0	43346	43810	41024	38383
837	0	44433	25096	29795	32331
838	0	42329	25924	35449	27251
839	0	27820	25685	40907	40713
840	0	29199	35479	42850	25199
841	0	39418	28656	35200	28933
842	0	29128	32838	35359	26486
843	0	27782	40820	25795	25597
844	0	31134	26524	34191	39612
845	0	39017	34706	26786	36570
846	0	36087	42592	30605	35303
847	0	25068	27633	37915	41671
848	0	27417	30111	42877	39626
849	0	41186	32003	42520	42244
850	0	26961	40661	42941	30624
851	0	33518	41267	33338	43426
852	0	37747	39076	36366	34441
853	0	35678	34269	34987	33308
854	0	32154	35448	31095	28928
855	0	42422	30360	44479	26514
856	0	31787	43062	42507	38429
857	0	30286	38967	39831	39394
858	0	41099	40253	32402	25285
859	0	27172	32353	40520	41652
860	0	39247	44355	25312	30074
861	0	44472	33304	43703	31619
862	0	33713	25040	41247	28402
863	0	29371	28704	29889	43749
864	0	36768	25142	34254	26690
865	0	40995	44985	34357	42885
866	0	30348	32724	27653	43540
867	0	29510	38246	31655	31491
868	0	31278	43231	37862	40802
869	0	31052	35439	32213	25952
870	0	34251	40551	36227	38750
871	0	29024	43629	32187	41878
872	0	25247	36502	34454	28608
873	0	36501	34509	28303	34915
874	0	37370	36853	34640	44573
875	0	29161	31857	27072	44665
876	0	35727	35406	29489	43749
877	0	35708	38708	40600	38126
878	0	29683	39795	42011	31324
879	0	37972	26766	42415	39596
880	0	33563	30228	40948	42471
881	0	36233	36597	25701	27171
882	0	37195	37868	44346	43389
883	0	32287	40737	32762	42893
884	0	44641	44266	38221	42808
885	0	33233	28286	32226	32337
886	0	41953	43631	41617	29574
887	0	31334	38595	44199	30172
888	0	28297	32001	39074	26155
889	0	32446	37630	31946	33696
890	0	44571	40169	39330	40620
891	0	28905	32551	43311	39337
892	0	25146	28137	34265	36839
893	0	39505	41619	26486	26106
894	0	44467	40572	32640	27027
895	0	28530	35561	37495	35182
896	0	28130	42552	32917	32923
897	0	30205	43827	31655	37990
898	0	42519	36544	27197	25643
899	0	38037	44654	35855	44144
900	0	42276	40464	39125	29500
901	0	38830	26906	41936	26768
902	0	40641	42179	41241	28300
903	0	33132	28054	33554	25388
904	0	38107	39242	44206	34942
905	0	31067	38294	35534	37151
906	0	30869	34015	35864	26909
907	0	34077	39375	30536	38518
908	0	38789	35468	31104	30439
909	0	30821	43971	32017	36944
910	0	26965	35305	44713	37223
911	0	27669	34278	26234	27006
912	0	42983	37344	25183	35682
913	0	31563	29954	41651	31836
914	0	34794	28854	43799	32438
915	0	27720	34399	41075	27148
916	0	34334	42935	39104	34958
917	0	26119	41042	25472	32924
918	0	37525	26987	33505	39078
919	0	27129	28059	35746	33060
920	0	32547	27181	36566	26761
921	0	27818	29920	30820	41234
922	0	28623	25154	26178	39296
923	0	31119	34816	44968	32214
924	0	44849	38378	39909	32591
925	0	38377	41246	37691	40036
926	0	44417	40804	32832	43293
927	0	25129	38252	30757	36046
928	0	28646	28051	25757	34281
929	0	33652	30328	39445	38658
930	0	25789	44248	32216	36831
931	0	40906	39905	35277	31040
932	0	32366	32472	40454	31052
933	0	41935	44504	25907	35183
934	0	35073	36341	25847	40619
935	0	35101	28663	44042	30491
936	0	37572	38876	33483	37148
937	0	39910	40279	37535	42145
938	0	26284	28259	32552	38145
939	0	44822	38323	36840	35943
940	0	28857	44681	36134	29600
941	0	31674	44656	44108	27303
942	0	39621	33878	39107	34828
943	0	42701	34649	40263	39490
944	0	36603	41626	39987	40250
945	0	25701	38183	27313	36807
946	0	35309	32549	30436	33025
947	0	35035	35083	31346	32436
948	0	38547	41826	26814	36954
949	0	28614	44941	42160	28195
950	0	42523	35562	29212	33314
951	0	25460	38700	28788	40719
952	0	35759	36677	27378	31590
953	0	43453	44083	38873	40886
954	0	38322	36557	37978	34679
955	0	28891	26357	34202	44670
956	0	25997	26150	37006	38257
957	0	27331	30821	43413	40254
958	0	25955	28991	42405	43841
959	0	44018	31150	33052	38935
960	0	27879	39229	41785	29401
961	0	36080	40958	33170	37812
962	0	25697	39380	32631	38534
963	0	35742	41789	37550	37859
964	0	34743	32809	39427	36362
965	0	26889	28892	32331	43073
966	0	30834	32526	42033	31129
967	0	32752	38076	28809	43765
968	0	39790	27518	35073	36881
969	0	27140	34841	26971	26171
970	0	38736	43998	43909	31732
971	0	33515	41606	26767	30432
972	0	29000	36155	31718	35539
973	0	30251	43684	44376	39498
974	0	35394	40983	41219	41988
975	0	25047	32496	27473	25962
976	0	29746	34402	38935	38319
977	0	37323	25292	34268	32538
978	0	38047	31916	25902	31599
979	0	33338	40943	34667	31904
980	0	32783	40641	42071	42747
981	0	36309	37806	27637	44709
982	0	29084	39713	33436	43529
983	0	31608	32540	38011	35692
984	0	32650	39426	28377	38113
985	0	43385	37134	41315	44895
986	0	36053	42661	33548	32317
987	0	34627	34679	30726	28959
988	0	37574	27186	37935	27902
989	0	32608	37447	38086	35531
990	0	41233	27581	30978	39083
991	0	29769	35609	27867	32229
992	0	34977	28326	32935	38279
993	0	28255	31164	26757	37597
994	0	42222	36067	44380	29080
995	0	40106	35363	30490	38768
996	0	39044	25026	37430	40215
997	0	30837	28945	42385	35236
998	0	29604	40968	25371	43728
999	0	31536	41523	33227	38393
1000	0	27578	27075	43923	43757
1001	0	40417	25576	43905	27870
1002	0	31528	27021	26201	30861
1003	0	31921	44247	30173	40052
1004	0	41185	39217	37628	40402
1005	0	32613	28356	31231	27570
1006	0	25558	43734	37891	26696
1007	0	32282	30454	41762	30556
1008	0	34470	38404	34736	34184
1009	0	38829	40309	35672	27296
1010	0	27588	25744	31967	34978
1011	0	29839	44223	30260	27999
1012	0	26752	33158	25142	39831
1013	0	36260	41345	40550	42072
1014	0	43926	32819	28227	31708
1015	0	33357	26821	26744	35646
1016	0	28751	44981	35524	40540
1017	0	33088	41552	34278	34496
1018	0	40205	43358	37514	33289
1019	0	25815	43253	42911	25774
1020	0	36082	34696	37517	28949
1021	0	30735	33619	28666	43597
1022	0	29135	44300	41671	28333
1023	0	42580	35902	25288	38748
1024	0	43047	35087	29065	29873
1025	0	44368	40379	44858	38553
1026	0	39528	30085	37677	29126
1027	0	32220	25750	27244	40927
1028	0	40319	38283	31164	27911
1029	0	25572	26532	35174	25924
1030	0	36882	39468	39236	33000
1031	0	34707	37212	36235	40038
1032	0	36094	33031	41174	35900
1033	0	37068	37507	39915	41621
1034	0	41719	25485	25758	40034
1035	0	25346	40473	30301	32822
1036	0	29721	25468	39899	32562
1037	0	27246	42718	38566	37048
1038	0	27953	25103	44641	36312
1039	0	31621	29703	29680	26979
1040	0	27516	40084	37233	36966
1041	0	27764	34383	37930	35310
1042	0	41744	31316	26252	40161
1043	0	29207	30620	37461	28082
1044	0	44858	30147	42226	26413
1045	0	34529	42636	26966	37742
1046	0	32685	30507	38594	38691
1047	0	31781	38811	38089	27948
1048	0	42046	37525	30236	38434
1049	0	36670	37594	41328	38123
1050	0	41403	26104	34399	38048
1051	0	37711	33495	37826	33360
1052	0	39216	44039	37987	35707
1053	0	43988	44273	28364	44192
1054	0	27852	44824	39592	34433
1055	0	28026	39813	32641	38384
1056	0	41092	28410	34142	34988
1057	0	42579	40420	28651	34140
1058	0	31935	44607	28871	43374
1059	0	34334	32088	31691	43276
1060	0	42421	31801	38226	25236
1061	0	38344	40610	27419	29153
1062	0	38214	42487	37843	39227
1063	0	37272	31918	39625	27606
1064	0	26192	32141	30252	37660
1065	0	30478	28933	29995	38195
1066	0	39433	42851	42502	31891
1067	0	39558	43909	28066	42337
1068	0	41892	32639	30706	30893
1069	0	31829	27001	31577	36172
1070	0	37535	26371	32304	37383
1071	0	41453	25785	37236	29609
1072	0	37317	36811	30875	35239
1073	0	34271	30058	36209	37765
1074	0	31573	40886	37641	32588
1075	0	38974	38698	35790	41059
1076	0	37323	44547	42373	25866
1077	0	30533	31258	32822	34174
1078	0	33918	30715	33151	37585
1079	0	37044	39818	42582	28553
1080	0	38548	32481	37846	37381
1081	0	32783	35750	40946	27753
1082	0	41308	39509	37665	38763
1083	0	25539	35570	26316	37098
1084	0	27828	36040	32871	44818
1085	0	28724	34148	39449	33383
1086	0	27574	36738	31096	28224
1087	0	39069	34468	26485	34512
1088	0	31233	26199	40673	36095
1089	0	42064	32029	26838	41819
1090	0	37347	39550	39900	25429
1091	0	38199	37814	35611	25384
1092	0	29195	29952	44005	35163
1093	0	29380	30599	35198	41129
1094	0	36344	27747	29974	25791
1095	0	41294	34378	33576	28209
1096	0	31390	39705	30849	31719
1097	0	30158	25100	44466	30961
1098	0	43340	35475	42245	43188
1099	0	41406	26993	40122	31885
1100	0	43659	38214	36787	38751
1101	0	41781	32154	29699	38500
1102	0	29191	44436	38216	34431
1103	0	42206	26364	36506	39981
1104	0	41150	28160	36153	41210
1105	0	40710	37172	39102	35659
1106	0	43691	34584	44917	28422
1107	0	30383	26336	43276	31864
1108	0	43422	40869	30007	29630
1109	0	31142	25225	31118	37892
1110	0	26857	42879	41041	33210
1111	0	35161	41373	39876	36863
1112	0	31569	37185	30236	30611
1113	0	36848	30638	43487	30201
1114	0	29532	30508	33732	29976
1115	0	28739	39530	34940	25976
1116	0	43577	32604	25274	32916
1117	0	32931	35135	42146	27486
1118	0	42361	38097	39018	30265
1119	0	38864	27109	41329	25531
1120	0	32782	31152	38163	27726
1121	0	41436	31306	26631	41997
1122	0	37690	27235	43587	38233
1123	0	25514	42437	38219	35807
1124	0	35782	39236	31766	38400
1125	0	37210	29102	40506	38396
1126	0	25803	35497	41886	37083
1127	0	42294	33901	27385	37530
1128	0	41126	27105	40342	30166
1129	0	31492	25273	30058	44211
1130	0	30948	30130	29516	39779
1131	0	30100	33218	34600	31164
1132	0	33178	30324	28318	27554
1133	0	35131	29315	25333	37360
1134	0	44999	27041	32947	37284
1135	0	35649	31497	27003	36638
1136	0	35620	31862	42417	33804
1137	0	43829	35494	36338	35417
1138	0	36919	38727	41766	35264
1139	0	33781	26356	38523	43159
1140	0	37868	26672	30695	43736
1141	0	34855	30217	43495	31954
1142	0	41710	42277	29578	43859
1143	0	27461	32884	32822	28465
1144	0	40558	27092	44830	41304
1145	0	32213	38736	27950	27820
1146	0	30915	42130	44406	42587
1147	0	40122	32089	42467	37959
1148	0	37988	28767	28695	42652
1149	0	35460	33378	39704	26844
1150	0	39452	32937	36404	27951
1151	0	29029	28221	36875	38912
1152	0	33910	44538	28030	44771
1153	0	44011	40480	33691	31787
1154	0	31886	26654	35069	34531
1155	0	26917	27946	28604	30430
1156	0	43258	25357	33589	27538
1157	0	28127	32457	32172	34962
1158	0	32112	34753	28474	37300
1159	0	43450	31323	33239	39854
1160	0	42446	34335	40126	38272
1161	0	33747	38573	25737	26978
1162	0	43802	28140	43074	35792
1163	0	44351	25325	39126	28831
1164	0	40332	28144	43250	36016
1165	0	41752	35844	31355	29544
1166	0	25200	39193	38801	39767
1167	0	33347	35636	35169	38481
1168	0	42843	25776	36411	32139
1169	0	25933	44687	26818	25362
1170	0	40286	41680	34526	30271
1171	0	34206	25631	27684	35525
1172	0	32809	27526	28577	29456
1173	0	28553	44130	42210	35804
1174	0	28687	37151	29583	36999
1175	0	30167	25703	28550	37860
1176	0	36368	30569	35947	26477
1177	0	43427	32486	41811	32499
1178	0	40224	27017	28046	38486
1179	0	28736	38500	32656	37245
1180	0	41580	34293	29645	29044
1181	0	37458	43923	26034	27941
1182	0	43498	27187	39827	42642
1183	0	28461	39995	40604	40579
1184	0	26145	30943	40202	39410
1185	0	29141	27979	31601	32770
1186	0	31965	29919	40331	39257
1187	0	33641	38946	39879	28968
1188	0	44713	43872	27017	28164
1189	0	38993	32054	28439	28818
1190	0	44611	42028	41219	43293
1191	0	27385	36850	29184	36911
1192	0	30754	29429	38547	27263
1193	0	36392	38089	28873	34480
1194	0	28208	30172	35241	32338
1195	0	25095	34003	30685	28756
1196	0	27514	44777	41282	29527
1197	0	30244	27814	27258	33932
1198	0	25391	43690	28615	29147
1199	0	38617	29833	25590	44560
1200	0	28452	30422	33215	25881
1201	0	35004	30403	33149	27332
1202	0	25660	25213	37577	35026
1203	0	41064	33145	43974	34805
1204	0	40302	37837	27230	26544
1205	0	26987	40036	39551	33458
1206	0	37898	37146	39880	26990
1207	0	36876	35772	32890	41865
1208	0	31159	29671	43001	38673
1209	0	26873	37572	36248	43939
1210	0	28605	32906	29180	43936
1211	0	38149	26074	31592	41944
1212	0	33881	37388	37838	35729
1213	0	35970	35290	30775	32938
1214	0	40834	43432	44070	37861
1215	0	28985	32418	43118	42405
1216	0	44720	36637	35083	35746
1217	0	43200	26882	29466	35275
1218	0	44712	44410	27446	44303
1219	0	36336	43479	41883	42949
1220	0	36289	26717	25654	26894
1221	0	37099	37575	25339	42822
1222	0	28363	26661	35333	32680
1223	0	25938	27913	41747	25115
1224	0	37121	37353	26008	37179
1225	0	30913	35933	42586	40407
1226	0	42779	35640	43211	31644
1227	0	32525	41446	31643	35628
1228	0	30019	28777	33877	33399
1229	0	28811	36445	42274	33148
1230	0	25818	41722	36560	41953
1231	0	40053	42146	25819	40507
1232	0	39899	31567	42282	38990
1233	0	35512	32578	32246	43227
1234	0	25257	44168	39083	39228
1235	0	38439	25434	28888	27326
1236	0	31901	30654	36191	40185
1237	0	38494	35824	41958	42564
1238	0	43540	36134	27525	28545
1239	0	32312	34438	27232	41849
1240	0	30997	38409	32059	29693
1241	0	26056	41020	38510	44378
1242	0	25792	25328	39241	37027
1243	0	28957	27844	26096	38622
1244	0	30620	44948	28161	26188
1245	0	28906	38012	38211	44755
1246	0	28179	36414	25985	43826
1247	0	39940	34938	39234	28591
1248	0	28856	40405	43733	26493
1249	0	32794	37323	31221	37726
1250	0	32777	29661	29711	31202
1251	0	32096	29831	33035	42123
1252	0	38317	25685	32563	44529
1253	0	35483	31373	37219	30286
1254	0	31676	35344	44109	41970
1255	0	39954	42825	27433	38644
1256	0	30776	26782	35506	33952
1257	0	27463	40802	37722	42864
1258	0	32704	39507	39969	41128
1259	0	27974	32179	41368	32054
1260	0	25977	28583	37395	42609
1261	0	28978	40651	35806	40484
1262	0	25601	41901	44770	35012
1263	0	39411	41054	44483	39167
1264	0	36403	32599	29370	42342
1265	0	25403	41347	33215	27993
1266	0	38353	32987	26106	38367
1267	0	43342	44077	41695	26552
1268	0	30664	32342	42459	35198
1269	0	34290	25957	34061	26163
1270	0	38421	39075	28350	35919
1271	0	39020	26788	35797	26208
1272	0	34266	38145	39945	42246
1273	0	39847	26312	33297	29311
1274	0	43582	37418	39059	42788
1275	0	29589	38006	38451	37616
1276	0	29609	41972	27454	43366
1277	0	27440	36306	39561	42999
1278	0	34985	36980	28440	28412
1279	0	32450	29779	43698	26107
1280	0	31044	27753	42591	32439
1281	0	29754	43661	39215	28611
1282	0	29265	27876	34944	27432
1283	0	41654	25472	32138	42133
1284	0	38297	29070	39507	41639
1285	0	38645	39218	28185	29873
1286	0	27002	26449	25820	25426
1287	0	26544	31758	39860	40396
1288	0	43295	25234	25330	31065
1289	0	40521	42566	36137	44455
1290	0	34725	37503	38435	31699
1291	0	40224	30320	42595	40484
1292	0	41459	41824	28657	44376
1293	0	25832	33246	43016	38365
1294	0	28408	41559	35936	26761
1295	0	26777	31835	33835	39500
1296	0	25933	32076	38158	38999
1297	0	40338	27794	36572	43206
1298	0	34068	28202	28695	26953
1299	0	38769	25923	35833	30010
1300	0	35352	30679	44667	34017
1301	0	40509	30321	39014	25313
1302	0	35264	29871	30417	25647
1303	0	42274	35434	31821	42113
1304	0	31054	34080	31033	34110
1305	0	26172	28523	28082	26875
1306	0	31994	43311	33993	25666
1307	0	42157	33233	30337	28351
1308	0	39116	30299	32453	28354
1309	0	42930	37192	41742	41226
1310	0	26114	37363	34049	37944
1311	0	36264	44978	31356	27096
1312	0	40258	26432	37620	33309
1313	0	32918	25977	41662	30365
1314	0	25433	27995	34455	40074
1315	0	26163	32960	36307	37372
1316	0	35598	42469	28049	29488
1317	0	35708	26005	44492	36125
1318	0	34523	28204	43176	39712
1319	0	37200	30403	27697	38486
1320	0	29695	29052	40735	42759
1321	0	38906	26495	37393	39125
1322	0	34372	35414	35773	40480
1323	0	31955	42436	31197	40187
1324	0	33381	36936	28059	43633
1325	0	37153	43400	27800	34214
1326	0	37290	25899	35116	25606
1327	0	27487	34045	38465	43612
1328	0	26729	28589	29843	32239
1329	0	40391	25671	39379	40601
1330	0	34297	39406	33141	30526
1331	0	38369	35016	29395	41502
1332	0	34100	27547	41156	41718
1333	0	39602	28529	28857	27007
1334	0	33302	40313	44124	25219
1335	0	31167	35584	43408	30248
1336	0	33518	27101	40486	40575
1337	0	41874	32505	32728	44595
1338	0	27655	32924	31624	36359
1339	0	42668	39690	29690	25650
1340	0	36439	25923	37446	32724
1341	0	34331	32680	34319	25080
1342	0	40855	39603	31522	25372
1343	0	31083	26130	36439	43810
1344	0	43497	42441	38505	32576
1345	0	36585	30695	32625	44136
1346	0	38795	27645	44861	36862
1347	0	30339	25238	30973	37930
1348	0	35222	29175	37033	40635
1349	0	26673	44415	38398	41673
1350	0	34858	25118	42142	26614
1351	0	30445	33286	29491	29603
1352	0	37054	35891	41624	31038
1353	0	27032	29274	36359	32565
1354	0	31549	31050	33099	26602
1355	0	43708	39438	40940	41116
1356	0	30900	29974	43828	28610
1357	0	32384	37356	32754	26758
1358	0	34855	41304	29428	26352
1359	0	33032	32992	37477	27860
1360	0	42121	36798	41962	32661
1361	0	26374	38344	28004	30636
1362	0	39198	28051	30122	25634
1363	0	38383	28389	26824	36435
1364	0	30724	30144	36761	31620
1365	0	25685	36946	32696	32543
1366	0	36410	35329	39758	31171
1367	0	31389	27219	26984	27269
1368	0	30548	38755	39677	42885
1369	0	33864	34165	38151	31230
1370	0	31150	30381	38408	27054
1371	0	35684	40138	31576	25413
1372	0	32071	44221	43877	25066
1373	0	34254	29933	33735	35432
1374	0	28499	44962	30014	26633
1375	0	27618	28814	42070	37538
1376	0	38565	28856	42868	28406
1377	0	31303	34652	40131	34172
1378	0	29354	25499	29001	34898
1379	0	38958	42291	26011	33076
1380	0	42610	43662	29935	33976
1381	0	36029	26200	30792	33066
1382	0	31506	34192	34897	31429
1383	0	34868	36957	36616	25863
1384	0	34355	25036	43871	27911
1385	0	43025	42903	29288	29892
1386	0	27851	44457	40555	30250
1387	0	38429	30412	42329	43482
1388	0	41243	40038	37711	27578
1389	0	39576	33645	39848	31055
1390	0	35269	39356	38426	37008
1391	0	35089	28954	40688	40905
1392	0	42548	25867	33912	41983
1393	0	34024	34653	28249	42067
1394	0	39728	30040	39904	27047
1395	0	39485	44635	40076	28056
1396	0	36372	41755	34759	38601
1397	0	43331	38436	28450	30081
1398	0	34143	35665	38938	35524
1399	0	27089	31130	34768	35423
1400	0	37829	33826	41699	29942
1401	0	36842	28286	26277	41841
1402	0	26331	30530	25454	44616
1403	0	37322	33677	30327	40045
1404	0	30040	29354	32413	31008
1405	0	26184	33221	31413	28428
1406	0	37810	34245	25642	39235
1407	0	26607	43340	30889	36285
1408	0	39035	28866	27145	41499
1409	0	41294	27573	32554	26771
1410	0	40087	43093	40971	32813
1411	0	44800	30125	28469	26787
1412	0	25226	30495	44577	35360
1413	0	41953	29604	43784	32352
1414	0	28525	37721	44983	25143
1415	0	25330	42070	37174	30183
1416	0	34757	33990	27650	28795
1417	0	28368	44611	31033	39296
1418	0	29763	26478	32719	40840
1419	0	34511	37527	33801	40766
1420	0	37539	35481	31608	32678
1421	0	44896	34764	38849	28403
1422	0	37588	34165	28280	37630
1423	0	40761	43921	39094	28752
1424	0	33465	37841	29759	38053
1425	0	43699	28600	29975	44667
1426	0	42946	32896	40258	39219
1427	0	26003	41004	28533	35316
1428	0	43333	34193	33484	41924
1429	0	31470	31861	27548	31077
1430	0	34422	27938	39232	34748
1431	0	44233	32297	27714	37670
1432	0	39696	33357	26749	44249
1433	0	40516	34155	33713	42847
1434	0	32831	28127	42799	26923
1435	0	32757	43931	35712	32126
1436	0	25007	44691	27533	37214
1437	0	44118	42377	44537	38421
1438	0	29631	42949	37426	30655
1439	0	25467	39939	27481	27265
1440	0	40733	25575	28543	43164
1441	0	34019	35264	32684	43913
1442	0	43048	36907	44819	43212
1443	0	37386	32246	31761	39460
1444	0	27760	40491	36533	28806
1445	0	36617	41035	30097	42746
1446	0	44426	36209	35969	26885
1447	0	26742	38395	39292	31422
1448	0	43979	40443	39573	44833
1449	0	27370	40825	41632	41475
1450	0	40937	32238	38250	40114
1451	0	37745	35569	32475	26880
1452	0	38028	29692	28719	29559
1453	0	30115	39588	34327	34434
1454	0	27638	40496	30558	31060
1455	0	29303	27101	38030	42548
1456	0	32822	26559	34125	30284
1457	0	44086	39562	27116	33795
1458	0	30360	43641	28167	34123
1459	0	36022	33715	43761	39444
1460	0	32756	26950	26126	31895
1461	0	39505	32187	27530	34185
1462	0	27273	38027	40279	27081
1463	0	42199	26973	27788	25632
1464	0	35766	31057	42401	39912
1465	0	34158	32978	40247	33078
1466	0	25346	30777	37412	38440
1467	0	25353	26346	26844	40508
1468	0	40236	38394	37198	30152
1469	0	40454	34894	41267	38006
1470	0	36420	28561	32759	42601
1471	0	26272	39390	39623	32141
1472	0	33694	30230	36023	43334
1473	0	44809	29149	33379	27544
1474	0	31645	42942	36991	26922
1475	0	42236	43614	27346	29582
1476	0	30065	43285	31606	40774
1477	0	34531	34487	30523	27450
1478	0	41223	41227	37087	26768
1479	0	36652	43252	28070	41650
1480	0	42286	41034	34169	33266
1481	0	28489	39080	43511	41837
1482	0	43649	30392	40756	27201
1483	0	43800	25188	43831	43000
1484	0	34514	29981	39390	30887
1485	0	29830	35933	43072	37709
1486	0	38327	35417	39721	31817
1487	0	43321	33366	32006	35996
1488	0	40025	26053	44557	27528
1489	0	26527	44921	29330	44001
1490	0	31142	40090	26873	31921
1491	0	33794	28236	36998	40685
1492	0	27052	36223	40760	32044
1493	0	26524	40810	35556	43162
1494	0	25027	30790	29721	42321
1495	0	38839	39235	29548	44749
1496	0	34216	36353	38018	26024
1497	0	34762	31868	32160	32522
1498	0	33923	38288	37313	31500
1499	0	41347	42168	30192	36212
1500	0	25439	33992	25876	37094
1501	0	39051	36560	33781	25262
1502	0	41288	30410	43469	40326
1503	0	32210	35426	38941	38406
1504	0	40503	43218	40132	28897
1505	0	30158	28219	35579	41100
1506	0	35983	40541	36915	36386
1507	0	38076	29869	33624	37731
1508	0	28213	27660	41531	43772
1509	0	34199	38611	28558	27724
1510	0	29014	40817	42131	34532
1511	0	36036	41768	40128	40559
1512	0	27563	30043	26085	32391
1513	0	41080	44988	41015	39087
1514	0	37769	29357	42867	35984
1515	0	37427	31575	39554	26403
1516	0	31239	27623	31025	28081
1517	0	31811	41896	28677	42396
1518	0	35412	41862	27771	31435
1519	0	33336	28050	34681	41924
1520	0	44911	34666	39437	42891
1521	0	44680	34736	30443	33057
1522	0	29753	32847	43562	31317
1523	0	43510	27066	32752	37433
1524	0	36805	30282	30522	27771
1525	0	36943	30192	34426	25367
1526	0	27751	40288	28875	31307
1527	0	44499	28982	29551	28788
1528	0	28708	44950	38791	25184
1529	0	31522	27435	41735	30617
1530	0	37503	25763	25703	33647
1531	0	25851	35920	44907	39588
1532	0	34150	37783	39520	30878
1533	0	35760	32715	26783	36437
1534	0	37137	25134	36223	43649
1535	0	32810	37058	32757	35468
1536	0	28021	39447	29003	29000
1537	0	32498	35935	25807	33400
1538	0	34393	41958	33079	41646
1539	0	44574	25918	29575	28193
1540	0	43037	41125	44823	35456
1541	0	41220	37564	44269	44894
1542	0	36815	27351	39653	31620
1543	0	31941	35883	35890	29806
1544	0	43247	34194	40836	40966
1545	0	42309	33843	39386	43429
1546	0	39816	42138	30322	25421
1547	0	33828	31074	30668	28779
1548	0	25423	26930	32072	30303
1549	0	33847	42066	43882	32455
1550	0	30240	36506	28097	26079
1551	0	42903	25394	40420	32993
1552	0	32149	40729	36135	43282
1553	0	39741	26877	33917	32893
1554	0	34905	31210	27582	37027
1555	0	35994	34219	37356	30999
1556	0	33940	35419	42582	42394
1557	0	31112	41495	44934	31653
1558	0	30946	35642	25701	44785
1559	0	33684	36666	35053	30148
1560	0	25533	43660	33006	43746
1561	0	34400	37882	30994	40185
1562	0	35126	35284	34846	29892
1563	0	27197	31001	25952	42324
1564	0	32763	34026	28138	39229
1565	0	39947	40396	29026	29408
1566	0	25923	38861	36840	28381
1567	0	44971	25265	41767	29180
1568	0	29705	25370	41962	30408
1569	0	34600	29271	44265	40912
1570	0	28817	41003	30491	40450
1571	0	26723	26514	29351	28295
1572	0	43999	39403	26238	41470
1573	0	30536	33552	39417	33610
1574	0	30236	39893	41941	30308
1575	0	34093	27624	27878	41605
1576	0	44063	32235	25418	40139
1577	0	27280	41864	28291	38220
1578	0	39035	29828	29663	31777
1579	0	28921	36192	38060	29346
1580	0	40926	37883	28557	29160
1581	0	27344	29344	35572	31189
1582	0	39187	29417	33062	31837
1583	0	35630	25278	30855	37203
1584	0	25277	38147	41036	41808
1585	0	28550	28558	43854	32883
1586	0	33634	26699	32884	32612
1587	0	42765	30404	25823	33309
1588	0	28737	36127	34309	43589
1589	0	26264	40152	44359	36919
1590	0	31678	42319	43312	33485
1591	0	35832	33915	39475	29497
1592	0	38518	44361	41287	37426
1593	0	36898	38183	38249	25398
1594	0	27078	44144	38631	37259
1595	0	34725	34519	33615	29000
1596	0	26153	34176	37364	35422
1597	0	44426	44520	34394	30481
1598	0	43439	30949	33377	33977
1599	0	32353	32357	27147	42034
1600	0	41557	25417	36967	38566
1601	0	43587	40759	27170	39716
1602	0	42441	25739	30380	34101
1603	0	44527	37123	38243	34401
1604	0	35269	44604	27080	40518
1605	0	44296	36133	39068	29024
1606	0	25428	31019	28583	35616
1607	0	42867	43864	35076	32119
1608	0	28763	29236	37774	25619
1609	0	32441	43169	26196	35656
1610	0	28473	41086	43462	36719
1611	0	41941	43989	39358	28045
1612	0	41382	28532	42369	42734
1613	0	31642	38095	43341	31291
1614	0	36112	33869	27564	37877
1615	0	33964	33252	31364	44060
1616	0	32469	36991	35125	42383
1617	0	39770	39020	38038	26722
1618	0	35122	39207	26996	31385
1619	0	39645	32499	26244	38437
1620	0	25112	33555	35376	29660
1621	0	32832	33848	43220	37481
1622	0	28763	28730	34476	26577
1623	0	32011	34403	25619	27008
1624	0	33890	34405	43549	33866
1625	0	42333	40833	37111	28258
1626	0	25069	32392	38678	38080
1627	0	36882	26992	40497	27445
1628	0	35409	32697	27205	36101
1629	0	43407	40988	39198	35219
1630	0	41731	31625	38064	30645
1631	0	38130	44799	31206	29482
1632	0	40043	26050	33962	39857
1633	0	41299	32397	26334	30251
1634	0	43846	29436	42399	27082
1635	0	32603	36941	27179	38751
1636	0	25932	37189	26145	29978
1637	0	44422	35925	33227	44656
1638	0	25599	26325	40519	37418
1639	0	40855	40309	36141	33354
1640	0	25957	42741	40667	35903
1641	0	40033	31463	30566	28725
1642	0	36978	33919	34310	29335
1643	0	29529	43918	29327	42122
1644	0	39352	41584	37083	40936
1645	0	30644	28556	39147	41555
1646	0	38794	38464	27894	33629
1647	0	25238	39274	38586	43104
1648	0	33477	31196	31385	42888
1649	0	33756	39702	43642	27850
1650	0	29302	30563	38310	25719
1651	0	34468	42410	33609	43629
1652	0	28299	39283	41223	26390
1653	0	29105	42758	25947	41928
1654	0	27173	40940	36875	33308
1655	0	29076	40441	33704	38866
1656	0	41503	33574	40552	38081
1657	0	35102	43581	42458	38623
1658	0	38039	31100	31411	26643
1659	0	28764	30380	43164	35991
1660	0	25048	27360	38199	42733
1661	0	37311	31993	36087	37282
1662	0	42585	41161	27292	44485
1663	0	27011	30646	27999	31985
1664	0	38453	26170	30227	31848
1665	0	43585	27010	30694	29322
1666	0	42822	26880	29725	28422
1667	0	27094	33183	39987	29347
1668	0	37400	25018	32031	29331
1669	0	31813	44709	26628	25535
1670	0	38144	40550	38383	26824
1671	0	35011	44230	44722	31028
1672	0	27713	31704	31089	34986
1673	0	37466	30968	40935	36363
1674	0	35548	32882	34410	38545
1675	0	38447	33372	33306	32019
1676	0	26368	42705	39151	37401
1677	0	29837	35222	40170	36712
1678	0	36589	33342	25099	38650
1679	0	30715	43583	35666	36653
1680	0	28238	43309	36875	39589
1681	0	40619	32757	33799	27172
1682	0	36077	31379	26006	32768
1683	0	25951	25727	38233	41080
1684	0	31330	29592	31500	41752
1685	0	43117	30317	31602	39004
1686	0	42428	41613	39388	29229
1687	0	39080	40079	42369	30286
1688	0	41237	26239	39107	39649
1689	0	33456	27631	31036	28770
1690	0	34278	42214	40477	29030
1691	0	39100	28564	38752	36869
1692	0	27539	35470	43482	33803
1693	0	35295	44249	40968	38601
1694	0	35580	40030	30526	27708
1695	0	40682	29966	40818	40081
1696	0	30957	25665	34135	30672
1697	0	25488	29321	38988	25100
1698	0	39022	29713	35260	43170
1699	0	44713	27448	34363	44964
1700	0	25850	39305	39513	26605
1701	0	29882	39780	38063	39109
1702	0	29053	29573	34052	37737
1703	0	32430	44778	41397	25781
1704	0	31720	29771	25436	26426
1705	0	36786	30832	42745	44354
1706	0	37585	35045	30498	32034
1707	0	33529	43583	36310	26191
1708	0	41368	29035	25583	40873
1709	0	27780	39023	26785	27481
1710	0	25610	40679	29793	40022
1711	0	36125	34970	28618	25571
1712	0	32818	44970	42986	31058
1713	0	32486	31522	44794	29176
1714	0	39027	29417	29754	43647
1715	0	25982	28175	41141	29283
1716	0	38401	29226	25971	31562
1717	0	31898	29049	40610	36523
1718	0	28145	27391	40025	42266
1719	0	27029	31145	28437	29530
1720	0	35424	38121	34680	36778
1721	0	37367	38574	37973	37986
1722	0	26494	41554	26096	44133
1723	0	39776	42181	40821	38730
1724	0	44218	43463	29586	33235
1725	0	25511	26282	38392	44760
1726	0	27910	31975	32402	32294
1727	0	27709	25861	40534	36282
1728	0	25985	39178	30382	31636
1729	0	27604	42979	44812	41477
1730	0	26857	44156	30454	42750
1731	0	38005	36855	28625	31251
1732	0	38947	41230	39633	39849
1733	0	37832	41543	27653	27612
1734	0	26328	27091	42192	41619
1735	0	26580	25538	30312	30252
1736	0	39139	25691	33413	33375
1737	0	42144	25015	34160	35380
1738	0	42143	31446	30613	36076
1739	0	32932	33723	40443	42137
1740	0	36543	27325	32995	44900
1741	0	40475	42600	27736	32752
1742	0	29189	27333	26115	26884
1743	0	30083	33631	32745	34801
1744	0	33275	25581	44159	39528
1745	0	32607	34022	28749	35403
1746	0	40368	26835	37180	34183
1747	0	26167	25004	32190	29935
1748	0	35525	26600	37570	33758
1749	0	44922	31177	32538	25195
1750	0	42598	27444	41054	36389
1751	0	36164	39575	39525	42611
1752	0	28170	30683	29801	31116
1753	0	33465	41432	27259	34444
1754	0	37332	44173	41358	42539
1755	0	44525	41061	36546	30146
1756	0	25396	32456	40946	27598
1757	0	42724	38418	30543	38915
1758	0	26993	40306	29290	39864
1759	0	35541	38458	41345	35876
1760	0	40537	36363	37407	44204
1761	0	43207	38137	32624	33286
1762	0	29483	28957	26935	28639
1763	0	25813	28539	44889	35664
1764	0	42382	34976	40508	43059
1765	0	34163	37549	39532	36146
1766	0	35431	40934	42190	33104
1767	0	39773	34558	25152	35513
1768	0	42007	37829	25460	26309
1769	0	35461	41540	38349	34497
1770	0	37733	41853	39026	39928
1771	0	39128	31842	37793	40007
1772	0	44929	25965	28423	40178
1773	0	27432	28708	43044	37849
1774	0	41990	31513	43659	43535
1775	0	43959	44443	29493	43096
1776	0	31034	37455	37477	25868
1777	0	30916	32338	35091	44187
1778	0	36466	39622	31811	26715
1779	0	35204	30523	37007	43419
1780	0	41593	36828	42482	44571
1781	0	34458	32919	39927	41198
1782	0	37375	27750	44999	26648
1783	0	31431	42793	27493	25383
1784	0	37606	41388	32879	31642
1785	0	28395	31001	38628	39769
1786	0	42367	41652	37667	42495
1787	0	35359	44985	39880	31856
1788	0	29400	30387	39576	36147
1789	0	43099	38638	30460	36506
1790	0	25736	41584	39449	28058
1791	0	32246	42869	33356	43599
1792	0	26175	33428	42667	34973
1793	0	39529	43389	44117	27768
1794	0	28877	30548	26531	43641
1795	0	33101	36466	39703	37502
1796	0	38728	39013	26756	42128
1797	0	26520	39390	41487	44952
1798	0	37358	44080	32368	25843
1799	0	31362	43560	37128	44886
1800	0	36089	39471	38809	39149
1801	0	29389	35312	33091	40259
1802	0	28473	38689	34498	26699
1803	0	25615	26578	44242	26660
1804	0	37320	32436	27340	39375
1805	0	44670	34901	36251	33201
1806	0	44660	26720	31121	31698
1807	0	36026	26493	44754	39069
1808	0	26463	39703	34942	37571
1809	0	35137	40875	31880	33695
1810	0	41413	37215	28836	41657
1811	0	28958	34507	43255	29461
1812	0	25997	34153	36530	29585
1813	0	35597	25218	35648	29544
1814	0	28065	32732	37256	25344
1815	0	28122	26393	33440	39963
1816	0	42538	36951	31837	43029
1817	0	44730	42933	37604	36262
1818	0	30446	27246	27580	28357
1819	0	28244	44890	38518	26099
1820	0	26494	40078	44748	27908
1821	0	40900	38171	38842	28582
1822	0	28903	30563	35608	25080
1823	0	43353	33884	39458	34236
1824	0	41724	41998	35680	29486
1825	0	34549	44932	36173	27924
1826	0	29641	40823	34287	29128
1827	0	36381	42114	32068	30983
1828	0	40056	37548	30170	39112
1829	0	38449	31707	28963	34204
1830	0	36263	31013	37004	27877
1831	0	41535	38763	39629	34231
1832	0	27209	27134	34337	36287
1833	0	37821	34317	28617	25607
1834	0	43940	27791	31796	30133
1835	0	38369	39562	29508	41913
1836	0	43971	44986	26916	33612
1837	0	32822	42737	35430	37109
1838	0	35415	39499	27896	35798
1839	0	32362	41640	42307	27994
1840	0	34654	32087	27572	38594
1841	0	36012	33320	29992	27636
1842	0	32285	29490	36744	30068
1843	0	33609	36064	29190	31895
1844	0	26825	40328	37678	31533
1845	0	35657	35832	30019	26111
1846	0	37115	30668	30779	36836
1847	0	42954	32853	25993	26631
1848	0	26868	36926	38771	31120
1849	0	25647	25791	40094	32679
1850	0	30717	34067	35592	25869
1851	0	38270	39586	40513	36359
1852	0	34187	37035	42638	27464
1853	0	29075	35969	34112	27204
1854	0	39322	30216	42001	36377
1855	0	30259	42520	27495	39994
1856	0	43593	25170	35559	39218
1857	0	30005	26734	27401	37916
1858	0	36568	30309	33977	26355
1859	0	38053	38254	34351	30297
1860	0	31831	41148	34925	40334
1861	0	27504	27955	29418	36576
1862	0	40371	38730	43598	33471
1863	0	36289	37894	26192	36953
1864	0	31763	28583	32319	40802
1865	0	25933	33165	42818	38921
1866	0	37427	36267	25307	27102
1867	0	33122	37350	27414	38579
1868	0	27070	40644	31877	35231
1869	0	34616	44230	26740	29344
1870	0	41585	36955	35658	31726
1871	0	43969	38950	44841	35770
1872	0	34744	41596	41659	33256
1873	0	25648	36552	38911	42060
1874	0	36652	26247	32859	42400
1875	0	42842	35844	28318	32725
1876	0	27399	37862	30282	25796
1877	0	40997	25123	32171	27449
1878	0	30711	28876	37777	32531
1879	0	37298	40232	27592	39402
1880	0	34749	37663	35875	27473
1881	0	37616	26280	32730	28012
1882	0	25803	27068	44147	27835
1883	0	30364	31948	27173	28303
1884	0	44203	32024	34853	27809
1885	0	26992	25172	43166	33578
1886	0	41121	40787	34031	30393
1887	0	27611	40113	28458	38224
1888	0	30927	37342	34862	39287
1889	0	34741	33639	28181	32507
1890	0	36708	36481	25088	27410
1891	0	38196	26198	31014	42042
1892	0	31077	43535	32640	34220
1893	0	40298	43235	36246	38731
1894	0	41139	33062	41885	34543
1895	0	40843	34127	30441	31401
1896	0	42222	38447	36426	43058
1897	0	43120	39972	44674	41866
1898	0	41230	30872	30725	32613
1899	0	35428	26580	39002	41346
1900	0	32167	38842	27578	33370
1901	0	34060	26428	38411	27340
1902	0	31761	25544	32914	41921
1903	0	34653	42085	38750	38867
1904	0	30459	31945	35434	32145
1905	0	25337	35525	42589	27761
1906	0	31455	40355	28594	26305
1907	0	36844	38563	37949	43872
1908	0	31233	40440	38367	30565
1909	0	36934	34376	36507	25220
1910	0	43817	30040	40860	27745
1911	0	30962	33813	43916	42525
1912	0	44469	44731	40005	43585
1913	0	41506	32811	39438	33278
1914	0	35501	31196	33323	41271
1915	0	38899	39443	31658	43414
1916	0	39053	32530	43331	34325
1917	0	25181	33141	44223	31831
1918	0	33605	32441	44440	32866
1919	0	34089	29096	25816	42743
1920	0	29713	42775	39850	25163
1921	0	28467	34110	38271	42284
1922	0	29131	31245	42155	27761
1923	0	26634	31813	36161	44958
1924	0	30547	40829	31562	40067
1925	0	27821	43904	35586	35140
1926	0	33141	35523	27911	44856
1927	0	37175	40447	39939	25415
1928	0	44272	36924	33445	40166
1929	0	28553	32644	35887	42527
1930	0	41301	41823	37226	37936
1931	0	44912	28933	40255	33461
1932	0	29497	36862	42019	37705
1933	0	33003	27909	33393	33292
1934	0	38768	40073	36175	38861
1935	0	31580	25184	35141	31158
1936	0	38388	27053	41336	37458
1937	0	26903	34491	27424	40471
1938	0	34394	44938	43487	33181
1939	0	26974	31636	27962	44320
1940	0	38984	38802	36035	25216
1941	0	26860	29112	38214	27099
1942	0	42018	30949	26207	44605
1943	0	44415	38112	34803	40707
1944	0	28895	42487	41465	34427
1945	0	33275	35260	28606	38621
1946	0	37850	33007	43226	32446
1947	0	26725	37854	40605	38263
1948	0	40615	33959	30982	38153
1949	0	37667	44023	28167	32617
1950	0	43546	35723	31102	28102
1951	0	40712	26582	44082	30503
1952	0	44377	33414	33051	33815
1953	0	27733	26165	38371	42062
1954	0	38041	42187	29230	25286
1955	0	32022	25653	36742	34073
1956	0	26092	36300	27417	44584
1957	0	28894	40224	44739	40185
1958	0	32480	29424	37505	31862
1959	0	31056	27060	40465	36714
1960	0	29969	30843	35465	26513
1961	0	27424	31929	38838	38986
1962	0	36008	29137	36030	29193
1963	0	26572	28495	40629	28645
1964	0	27095	30401	39129	38478
1965	0	32389	29561	26088	39971
1966	0	36637	29069	38364	31330
1967	0	34321	27891	44858	40312
1968	0	32134	28823	39944	25850
1969	0	40317	40694	43255	42258
1970	0	32821	42642	31761	32418
1971	0	39323	42476	31902	38254
1972	0	40451	38546	38222	43825
1973	0	32778	40872	44466	37163
1974	0	39826	30131	44730	33873
1975	0	25421	30339	36905	26600
1976	0	30104	36846	30148	40092
1977	0	43074	25963	30011	32704
1978	0	44968	44673	37793	30265
1979	0	25392	40413	27012	28197
1980	0	26627	42144	40338	44073
1981	0	26238	32760	28592	31475
1982	0	28689	32602	25899	32180
1983	0	41280	31008	36407	28728
1984	0	25548	31733	42685	40659
1985	0	30931	33017	40690	42308
1986	0	27911	28996	28885	29888
1987	0	43332	40246	36772	42025
1988	0	28619	44970	33882	26997
1989	0	30084	32223	26203	42562
1990	0	25135	25417	34046	29098
1991	0	43185	35164	34697	31205
1992	0	38972	25376	43933	27089
1993	0	41515	32318	32331	26111
1994	0	35760	43099	44408	40237
1995	0	37072	38563	44475	25339
1996	0	37141	29772	40861	34564
1997	0	44715	32333	39508	43173
1998	0	28975	35916	28014	41146
1999	0	27365	40335	26485	39573
2000	0	44104	28407	33077	30589
2001	0	37344	40327	34958	43366
2002	0	29627	25084	32918	41631
2003	0	36566	39457	35574	26007
2004	0	40063	38416	44093	34128
2005	0	39354	39537	36276	35242
2006	0	36805	29407	30384	44416
2007	0	33782	38211	33719	26727
2008	0	28654	36122	33540	40794
2009	0	25977	44751	32757	39307
2010	0	27315	32660	41140	40275
2011	0	35272	36458	42855	43217
2012	0	42953	42461	42353	32216
2013	0	40268	44735	44589	34445
2014	0	25493	42698	41346	32846
2015	0	38731	32058	26572	26249
2016	0	32239	36513	37634	42435
2017	0	26987	36738	39813	41983
2018	0	28727	41919	43687	34720
2019	0	42430	31968	39550	43652
2020	0	34184	27952	41275	42868
2021	0	40253	44631	37622	38534
2022	0	32127	39785	33551	40646
2023	0	41637	32444	28668	32698
2024	0	41048	29186	41332	32488
2025	0	28323	28037	37360	35407
2026	0	26315	44923	33837	34202
2027	0	26817	27191	31417	31723
2028	0	40771	39179	42653	38653
2029	0	25382	39412	36603	25736
2030	0	34746	39507	31664	34248
2031	0	40062	44457	28785	30131
2032	0	43058	44888	42528	35836
2033	0	34144	30700	32344	40916
2034	0	36116	40102	44448	35881
2035	0	34010	30783	32328	37828
2036	0	41062	35052	41385	38697
2037	0	43159	42207	30433	28675
2038	0	26528	38761	42157	32051
2039	0	41245	31512	35712	39811
2040	0	33748	38334	37599	30681
2041	0	29131	33889	40408	32130
2042	0	39936	28570	30206	25133
2043	0	35141	28329	41455	32044
2044	0	44128	40656	39933	41615
2045	0	39378	37296	33713	37826
2046	0	37766	41640	32172	32706
2047	0	38725	38833	39216	32619
2048	0	39512	37167	29835	26669
2049	0	43657	38307	39757	39079
2050	0	41870	33121	26743	37284
2051	0	27560	38788	38835	40921
2052	0	40638	34565	43531	29454
2053	0	35408	44171	31317	44922
2054	0	25816	26935	37322	32608
2055	0	33825	44475	42981	27457
2056	0	37477	38543	30814	30453
2057	0	33133	25941	32546	28870
2058	0	44661	33647	38512	43129
2059	0	30877	35616	25853	38249
2060	0	29716	28569	30289	36511
2061	0	39309	30123	25786	35846
2062	0	42955	26786	34109	37398
2063	0	29398	36318	28910	25438
2064	0	41885	34196	37853	44456
2065	0	26799	43821	37424	31188
2066	0	40703	32988	25525	26358
2067	0	43362	39344	32991	25164
2068	0	30994	26023	30972	39886
2069	0	30497	34610	28640	42364
2070	0	28911	33838	35119	28849
2071	0	34378	43665	32984	31621
2072	0	25470	25111	43326	42512
2073	0	37988	37135	43728	41594
2074	0	40410	27493	42254	35304
2075	0	44333	35492	30283	44774
2076	0	44833	27739	26294	37875
2077	0	27918	37910	35909	25802
2078	0	35523	33724	27169	39611
2079	0	43883	37960	31419	37012
2080	0	33253	27998	44604	36540
2081	0	30948	29614	30923	33995
2082	0	35676	34750	39430	34756
2083	0	38412	36559	30020	37102
2084	0	39266	39076	44377	26054
2085	0	30839	32923	29647	30459
2086	0	42924	43866	42635	39453
2087	0	33437	33232	41092	35577
2088	0	37225	43087	35942	32472
2089	0	29941	26535	43279	25645
2090	0	31271	43559	39626	34777
2091	0	43201	31233	31923	40523
2092	0	25692	29261	43136	32476
2093	0	43526	37998	34568	25858
2094	0	37206	28049	43362	37063
2095	0	37871	35943	29290	41072
2096	0	34649	32274	39976	29755
2097	0	27364	32312	40787	26122
2098	0	31510	36705	43039	35634
2099	0	40879	35154	38749	28533
2100	0	39186	34306	34787	30887
2101	0	41171	29502	40586	26509
2102	0	33680	32946	34241	39943
2103	0	32772	25628	44444	43748
2104	0	44672	39598	31072	32028
2105	0	34838	39958	35805	26396
2106	0	40079	30593	29222	41146
2107	0	33952	39326	25259	26807
2108	0	25884	29237	43754	29636
2109	0	40657	37219	39276	39576
2110	0	28961	44948	40041	38024
2111	0	39809	40516	43422	41835
2112	0	31444	37109	44275	39698
2113	0	35787	43414	30929	31695
2114	0	40971	44298	43025	29900
2115	0	29884	42021	41452	37615
2116	0	36933	39043	41101	34923
2117	0	28538	37449	29746	33381
2118	0	33715	32261	26324	38641
2119	0	27594	25101	39553	32384
2120	0	32764	27800	31973	41264
2121	0	30041	32033	27839	41076
2122	0	40348	26007	42295	35852
2123	0	30493	34900	40408	29111
2124	0	39028	40884	39604	38536
2125	0	40437	40141	40398	39643
2126	0	28731	35970	30250	36327
2127	0	30000	30225	25821	31056
2128	0	38554	42380	25152	25705
2129	0	36617	26891	36717	44933
2130	0	28993	31611	35645	28687
2131	0	31817	40295	38841	37979
2132	0	42704	38740	42300	43494
2133	0	25770	36890	43546	39784
2134	0	36111	41268	43858	28458
2135	0	26519	41945	28148	25316
2136	0	26954	31480	26826	39968
2137	0	31855	37377	39974	37671
2138	0	27737	26084	39943	34374
2139	0	33963	29425	35391	42518
2140	0	38358	32896	29151	36052
2141	0	26117	40830	30559	31201
2142	0	41188	26588	36603	35172
2143	0	37886	25208	44929	35700
2144	0	25357	32220	32993	43316
2145	0	36247	35241	34510	29847
2146	0	43198	35837	43962	44486
2147	0	40480	30537	35315	38579
2148	0	38668	40846	32463	40714
2149	0	33057	28098	39457	31547
2150	0	40559	33679	34606	30693
2151	0	30793	35789	27034	35498
2152	0	28715	27450	28825	26248
2153	0	40319	25436	43349	42704
2154	0	42186	31213	35819	34319
2155	0	28061	25667	28217	32732
2156	0	37860	26894	31873	36982
2157	0	37852	36397	33088	31300
2158	0	36253	26082	38049	41340
2159	0	31383	38711	35203	25186
2160	0	33122	28353	36779	28465
2161	0	33759	30044	43033	40056
2162	0	41855	40224	41668	34495
2163	0	27530	26837	31173	25424
2164	0	30317	27676	44024	33243
2165	0	34234	41871	38462	39746
2166	0	28295	36400	42934	29227
2167	0	39662	42494	44194	39046
2168	0	31183	42858	32321	43443
2169	0	25107	27895	43159	40468
2170	0	35544	29129	28006	42481
2171	0	41947	41503	29979	38520
2172	0	42398	34118	32787	38004
2173	0	41434	38803	26491	44719
2174	0	35552	30634	41947	36308
2175	0	41571	39517	33178	30936
2176	0	29477	25470	27337	38378
2177	0	27780	32371	38152	29501
2178	0	32841	41024	37168	38503
2179	0	30653	37153	30027	31666
2180	0	41397	30582	35855	27332
2181	0	43439	42583	32820	36332
2182	0	36629	34734	36560	37294
2183	0	41585	40008	28541	43032
2184	0	39414	42560	32235	41791
2185	0	41106	39196	40571	32464
2186	0	31203	32440	32467	42535
2187	0	30115	35270	40725	35390
2188	0	40190	43792	32394	34715
2189	0	36821	30844	26624	31274
2190	0	34529	28846	37969	44373
2191	0	28711	35541	27403	34131
2192	0	33555	41605	29664	41920
2193	0	28577	41646	26330	40979
2194	0	37296	32005	44292	37148
2195	0	35953	34488	43040	42222
2196	0	40983	33643	36690	41537
2197	0	33927	42661	35767	25765
2198	0	35513	41732	35679	29318
2199	0	34074	26088	31291	40212
2200	0	42758	44958	32904	36067
2201	0	37302	41302	44126	29135
2202	0	35420	31214	27156	34199
2203	0	40306	40625	28669	32218
2204	0	41329	29658	43527	41977
2205	0	38857	36130	25082	26783
2206	0	32495	35121	43146	33885
2207	0	41796	28651	32342	40491
2208	0	42588	41818	26813	44707
2209	0	43318	26101	41114	35850
2210	0	38423	36713	32267	34458
2211	0	30385	33126	33451	36581
2212	0	37088	43415	33496	44579
2213	0	30906	35993	37145	32951
2214	0	25524	26325	36825	41223
2215	0	27059	32389	27027	30776
2216	0	29568	44673	44164	41839
2217	0	44429	38474	34597	44155
2218	0	30422	27185	31507	37751
2219	0	28079	35953	30964	42421
2220	0	40658	33747	37651	26052
2221	0	28682	35971	42039	37957
2222	0	29319	29152	28969	33707
2223	0	34267	28726	33085	43516
2224	0	32453	40517	42772	42463
2225	0	26831	29401	29910	30097
2226	0	28681	35246	25063	34754
2227	0	42668	29075	32151	44686
2228	0	30795	37350	44880	29289
2229	0	37015	43405	34028	38652
2230	0	31502	25769	35974	28390
2231	0	37778	26436	26880	38128
2232	0	43034	39701	44325	32616
2233	0	38099	32107	25122	36731
2234	0	39103	38349	39185	34082
2235	0	32704	39239	33961	25970
2236	0	36729	26738	35300	44172
2237	0	29464	42439	35404	30763
2238	0	30336	40260	41617	28143
2239	0	41150	42162	34693	36883
2240	0	25600	42106	29888	36257
2241	0	35320	29510	40437	30149
2242	0	30957	34950	30224	43256
2243	0	31000	41101	33047	44813
2244	0	36898	36650	29821	37393
2245	0	27128	33406	42903	28347
2246	0	42282	40449	37893	25774
2247	0	27622	39100	36090	28714
2248	0	33174	37505	40339	44797
2249	0	44550	35618	28478	42621
2250	0	34585	38458	28075	41039
2251	0	35568	28036	29590	35531
2252	0	39560	30736	43285	25440
2253	0	25629	41171	35647	44641
2254	0	30883	27683	35399	34705
2255	0	44826	42261	28987	39397
2256	0	37106	31587	43763	31222
2257	0	37210	31954	33713	41813
2258	0	38496	43942	31010	26562
2259	0	31840	28605	30060	35297
2260	0	34440	31292	28889	31051
2261	0	28470	37071	39946	25026
2262	0	40744	31445	39090	35939
2263	0	39512	28858	27104	41375
2264	0	31584	31374	40555	31591
2265	0	28833	36508	32373	39020
2266	0	42920	29552	30414	28178
2267	0	38825	36099	36280	36296
2268	0	27972	27196	28604	41889
2269	0	31316	44664	26415	39940
2270	0	26046	40939	26259	42665
2271	0	37861	35857	35636	44665
2272	0	28070	43945	35280	37783
2273	0	37352	34578	38266	40299
2274	0	31324	41735	26100	32258
2275	0	27412	25870	32286	40440
2276	0	35696	43451	32467	27279
2277	0	36814	43938	43272	41868
2278	0	33233	26558	36830	36712
2279	0	27815	34385	33987	35639
2280	0	32930	35274	35929	44490
2281	0	44127	27539	40389	27181
2282	0	27439	27824	41866	33624
2283	0	40777	25953	43901	32876
2284	0	40357	32732	41436	30405
2285	0	34286	35544	40702	43307
2286	0	38298	31141	37482	43358
2287	0	31110	25362	38852	26690
2288	0	33476	41923	41023	41521
2289	0	29207	25558	25122	42130
2290	0	29945	42752	27959	35808
2291	0	38643	43333	25657	37674
2292	0	32432	34621	34828	40590
2293	0	38389	29648	32401	41374
2294	0	43695	36159	38436	37995
2295	0	29674	28247	35391	39548
2296	0	32615	25098	33107	41976
2297	0	28100	40371	25179	38120
2298	0	29205	27018	31662	44068
2299	0	35140	30682	42679	26285
2300	0	27223	33236	35451	26888
2301	0	34729	31222	26057	26054
2302	0	39886	33028	39565	26310
2303	0	37970	34419	38385	43347
2304	0	38558	43585	41137	41206
2305	0	38678	29866	36499	25874
2306	0	37202	30090	27634	40229
2307	0	26575	35438	39532	38961
2308	0	27079	30442	37380	27275
2309	0	34820	33431	30704	40143
2310	0	33942	40077	35291	25159
2311	0	34119	40854	41194	32857
2312	0	35631	25309	31049	27702
2313	0	25626	31255	31411	38683
2314	0	30936	35378	39498	42905
2315	0	34246	41553	26002	41596
2316	0	27769	37354	42087	37407
2317	0	26099	36661	33618	28918
2318	0	32652	40960	35022	32151
2319	0	34795	44069	28921	31160
2320	0	28954	30054	39386	39829
2321	0	44713	35199	26316	25914
2322	0	35921	41461	26837	41173
2323	0	28126	33415	33912	41056
2324	0	43235	37944	41119	33633
2325	0	33571	30309	30375	25161
2326	0	35479	29366	31003	42228
2327	0	42159	31298	29307	32008
2328	0	34572	25923	28318	30451
2329	0	32710	32696	44655	41769
2330	0	25972	40892	42458	37703
2331	0	28152	35532	33697	30828
2332	0	37182	31313	41792	44347
2333	0	41654	40486	25306	36297
2334	0	39766	35646	29903	34534
2335	0	37498	41437	35095	35370
2336	0	28514	29440	41416	40626
2337	0	26823	42419	30644	36333
2338	0	26459	33984	36002	35909
2339	0	28270	34904	37545	32814
2340	0	30414	34650	26831	36217
2341	0	43772	31964	41640	33017
2342	0	28642	32310	35841	43159
2343	0	32725	34082	40042	41266
2344	0	28975	42128	30919	31720
2345	0	41422	44211	40729	40875
2346	0	37579	36996	39536	25880
2347	0	36477	27435	26021	43223
2348	0	28593	32684	35261	42038
2349	0	31379	43314	25383	28848
2350	0	37266	32401	30105	43171
2351	0	44536	37267	30246	28906
2352	0	35970	43206	33641	28584
2353	0	39767	34416	44216	42993
2354	0	26252	39306	38925	34027
2355	0	25535	41214	29110	37281
2356	0	40811	35594	33765	40060
2357	0	41296	28093	27510	39322
2358	0	37444	43440	32709	43523
2359	0	35576	28466	25808	42209
2360	0	39641	35544	25503	30904
2361	0	40673	39537	26030	27858
2362	0	32309	27931	43262	25426
2363	0	35145	39255	39678	31369
2364	0	39346	32939	32002	39235
2365	0	37480	29515	39632	39164
2366	0	40366	39604	28624	39961
2367	0	26150	32587	28185	29918
2368	0	35198	40541	28049	28999
2369	0	35955	25564	31840	35465
2370	0	33397	27187	39817	26676
2371	0	40918	37625	34242	28551
2372	0	32485	26142	30138	38576
2373	0	39097	37940	26304	29697
2374	0	43650	29908	33704	39624
2375	0	37781	28991	42353	41096
2376	0	35358	40124	40973	33748
2377	0	41676	40620	41491	40919
2378	0	29230	42964	31982	25914
2379	0	43542	39635	35421	29875
2380	0	35660	33454	38226	42285
2381	0	38590	33506	31212	27498
2382	0	40885	36528	44054	26401
2383	0	25949	30918	42649	36390
2384	0	25172	29552	34300	40998
2385	0	31648	43142	36326	37627
2386	0	31817	43784	43028	34987
2387	0	28917	35958	42818	35998
2388	0	29756	31762	39275	27941
2389	0	33747	27391	31436	36355
2390	0	42707	34686	36576	43561
2391	0	40713	27983	39937	26968
2392	0	26361	38137	27103	30376
2393	0	32569	32225	32258	28448
2394	0	32788	42193	35245	25162
2395	0	44587	36472	32064	25128
2396	0	44394	31899	35296	25187
2397	0	39422	36970	26315	41903
2398	0	38101	28279	30500	41353
2399	0	28964	39973	37534	41474
2400	0	41549	34454	31021	36051
2401	0	35063	27692	43984	38853
2402	0	38743	29227	42620	35664
2403	0	43945	37754	44711	41893
2404	0	36583	31069	34610	34551
2405	0	26927	41671	38323	26786
2406	0	39252	25557	40942	43167
2407	0	44748	43160	30861	31471
2408	0	32367	35337	26435	28369
2409	0	32517	40807	30510	41526
2410	0	38837	40576	36874	43597
2411	0	32891	35403	31878	39198
2412	0	30339	38436	44585	36039
2413	0	28188	40688	27068	40494
2414	0	27109	27095	43211	25144
2415	0	25581	37168	44796	26875
2416	0	34657	29755	43508	38666
2417	0	42817	28112	25369	42938
2418	0	44199	38001	30158	39999
2419	0	41588	25213	31049	29004
2420	0	32870	27894	27509	39905
2421	0	40540	42211	29537	35030
2422	0	40541	26107	40061	35544
2423	0	25279	30779	35942	35843
2424	0	41853	25652	29766	28980
2425	0	43352	33007	25010	36078
2426	0	30831	38305	37646	30638
2427	0	36179	39800	26487	31373
2428	0	36696	41017	30270	39061
2429	0	40487	39126	35217	36625
2430	0	41401	30536	34966	29142
2431	0	37612	28578	31866	29773
2432	0	29821	39275	39573	27996
2433	0	40448	32282	39019	31320
2434	0	43071	29510	35692	25252
2435	0	36075	32739	32848	43447
2436	0	42184	37686	27124	35113
2437	0	42646	44245	42531	32270
2438	0	34319	31826	42365	25831
2439	0	36348	36400	27643	37990
2440	0	25837	28996	30307	33383
2441	0	34037	38503	37130	44502
2442	0	32950	39194	26086	39555
2443	0	34073	37204	38204	31550
2444	0	38643	32326	30612	34247
2445	0	43227	39927	27529	44085
2446	0	25756	35872	40205	30905
2447	0	29566	25771	36196	26260
2448	0	39607	35218	27913	32362
2449	0	39059	25648	36341	28679
2450	0	29424	27612	40317	42921
2451	0	31703	28858	34184	44930
2452	0	30096	30551	44534	34544
2453	0	39942	35498	39419	32166
2454	0	34852	43216	27501	25907
2455	0	35995	41741	38471	36217
2456	0	37992	35972	26710	25878
2457	0	31540	37088	26139	34189
2458	0	30804	41885	42559	30874
2459	0	32800	33153	27107	28854
2460	0	43696	34585	40598	28608
2461	0	41972	27303	43145	36137
2462	0	35459	40070	39178	31437
2463	0	31879	26785	32091	26460
2464	0	27381	30207	36156	29373
2465	0	42514	31425	44745	32369
2466	0	36935	31513	32178	41706
2467	0	40561	29915	40427	25585
2468	0	34083	28732	36012	28341
2469	0	43113	27550	37285	28600
2470	0	41672	28517	27085	32946
2471	0	27988	32377	39586	43833
2472	0	44186	30040	43446	41226
2473	0	38572	39041	26206	41666
2474	0	44227	43022	29017	37859
2475	0	35034	39521	31895	28778
2476	0	41525	32227	26745	28837
2477	0	27386	28875	40640	44333
2478	0	25598	35498	37759	25820
2479	0	32449	42861	34601	29144
2480	0	29562	26911	31165	25251
2481	0	36267	36798	30126	42682
2482	0	40501	42639	31162	32438
2483	0	30069	28358	25329	36836
2484	0	29509	28769	44000	39734
2485	0	27452	35669	33855	34637
2486	0	43317	42301	34530	27112
2487	0	35411	34503	40784	44631
2488	0	36970	27740	26352	29332
2489	0	43396	30530	42421	36868
2490	0	28137	42513	31782	36690
2491	0	37667	32197	41742	33127
2492	0	41775	36892	35826	26664
2493	0	36470	40663	42165	36953
2494	0	43800	31524	40446	40483
2495	0	30537	41962	29095	42511
2496	0	38333	32292	34210	27942
2497	0	30736	31442	41169	37286
2498	0	35469	32546	32866	28507
2499	0	28988	36003	35065	39588
2500	0	32339	38520	43754	25124
2501	0	26739	30927	30136	43317
2502	0	43516	31476	43725	26552
2503	0	39164	33212	38605	25043
2504	0	28333	27165	26355	32352
2505	0	28374	39038	41858	33527
2506	0	42227	27256	30378	26532
2507	0	39452	26397	38548	32430
2508	0	41501	31546	36949	30889
2509	0	31350	28480	34889	37128
2510	0	26501	40613	29543	38847
2511	0	26885	40524	25772	32892
2512	0	42159	33721	34843	43080
2513	0	29697	32211	38748	40233
2514	0	26436	27382	26004	31529
2515	0	35235	37483	43493	29994
2516	0	32260	27757	42507	35106
2517	0	44360	39933	41024	37371
2518	0	43689	37318	32038	26093
2519	0	28892	33918	30135	37414
2520	0	36667	28415	26586	28035
2521	0	43166	43569	27503	34482
2522	0	44286	42177	37657	44896
2523	0	28363	36679	26420	26162
2524	0	37685	27090	29228	36170
2525	0	41496	32450	39159	39855
2526	0	38952	30340	33155	40236
2527	0	28419	39243	29967	42793
2528	0	36477	27360	40527	25137
2529	0	43855	28840	40024	42044
2530	0	36222	42186	42313	30103
2531	0	37450	40090	40123	32510
2532	0	27196	40755	26789	28121
2533	0	25510	32792	30303	38147
2534	0	41207	42721	37498	38133
2535	0	41638	32686	36581	28369
2536	0	29880	30189	29504	25067
2537	0	29029	37695	32371	27023
2538	0	33164	38083	40721	31279
2539	0	25069	29346	41603	29859
2540	0	35457	28835	39884	35348
2541	0	34695	38923	44490	32244
2542	0	38984	43074	32251	39574
2543	0	43221	41487	40690	38004
2544	0	37285	41783	36653	38140
2545	0	40788	31383	40018	27616
2546	0	33688	43479	28512	27938
2547	0	44116	25553	38217	34998
2548	0	40559	40349	26980	31451
2549	0	28176	38327	37887	28533
2550	0	27629	27711	35809	25629
2551	0	43804	25439	37854	32131
2552	0	41883	27654	35021	28298
2553	0	40938	33606	25870	42041
2554	0	33443	33331	39237	33128
2555	0	29673	44396	31082	30591
2556	0	34354	39161	37733	41473
2557	0	36480	43415	33939	44825
2558	0	40043	27901	33210	41211
2559	0	38198	32236	26678	34686
2560	0	41635	27367	36474	28146
2561	0	29986	41800	33873	31833
2562	0	36698	44434	26410	34293
2563	0	31591	25770	37734	30605
2564	0	41816	40470	33708	29668
2565	0	30678	26799	37436	37643
2566	0	29332	36946	30342	33431
2567	0	33179	27969	41875	26860
2568	0	39375	40582	32240	40169
2569	0	38408	39505	37220	41035
2570	0	43349	33257	26790	31299
2571	0	39502	44538	33809	34545
2572	0	32061	30642	32210	42527
2573	0	27480	32544	27208	33361
2574	0	44080	25147	37607	39029
2575	0	29705	41314	36563	27690
2576	0	30456	28364	38587	33535
2577	0	33446	31649	44083	32633
2578	0	40824	41367	38079	33005
2579	0	37730	30256	40382	32144
2580	0	35340	40222	41251	37688
2581	0	35783	32708	30099	35428
2582	0	30776	38868	27748	37927
2583	0	33195	25896	26946	38554
2584	0	28654	27542	38519	39514
2585	0	28277	42833	28841	41656
2586	0	27596	33879	43452	32280
2587	0	26997	25585	41838	42792
2588	0	28817	30132	38783	29425
2589	0	41504	36522	38787	33416
2590	0	41783	32504	27488	29636
2591	0	42037	28118	42825	36659
2592	0	44249	39534	31323	36690
2593	0	42701	36200	42877	26699
2594	0	44232	41495	28970	36123
2595	0	35039	28914	32480	42337
2596	0	36666	44820	32867	30507
2597	0	44379	26135	39055	33297
2598	0	37311	26691	34819	41307
2599	0	34835	27554	32450	33600
2600	0	31423	42351	38448	34499
2601	0	29254	42765	40433	25239
2602	0	35041	30691	44552	31495
2603	0	28067	31684	34288	34977
2604	0	30384	37348	38917	39287
2605	0	31703	39035	29509	33816
2606	0	33588	43845	42445	42717
2607	0	40972	38242	34172	37669
2608	0	38846	34244	27191	44814
2609	0	37319	29346	30471	39257
2610	0	43110	42919	31155	40835
2611	0	34142	38213	39590	25053
2612	0	25178	29373	26252	35019
2613	0	35571	35271	32715	42385
2614	0	37689	36302	29495	37505
2615	0	30031	29038	29347	28606
2616	0	27437	43192	35701	44145
2617	0	31841	34211	39733	38833
2618	0	41591	37852	41031	35787
2619	0	38768	38846	34199	26727
2620	0	37149	39065	37632	30109
2621	0	28868	31346	42404	44726
2622	0	31244	35300	34824	31958
2623	0	37692	36995	44127	39257
2624	0	39255	31065	35396	39096
2625	0	39620	39180	43847	43029
2626	0	37922	28721	39586	32170
2627	0	41966	35715	41054	27354
2628	0	34096	31092	39057	40111
2629	0	27618	26238	40208	39038
2630	0	25667	39433	38494	30962
2631	0	35574	31644	25842	34207
2632	0	39634	32590	33920	33992
2633	0	42839	31429	39380	36402
2634	0	44708	40881	31844	29598
2635	0	39505	36022	34102	36479
2636	0	32832	38775	30789	39831
2637	0	29566	26190	42668	34348
2638	0	41648	28667	35686	40969
2639	0	26822	29881	31343	29267
2640	0	27866	43425	25641	34034
2641	0	28863	41289	32322	35124
2642	0	28428	34459	39430	33743
2643	0	32613	28204	28780	27686
2644	0	27872	31309	40719	39021
2645	0	39562	27055	39832	28211
2646	0	38599	44655	34515	34731
2647	0	38137	33916	40907	28281
2648	0	38488	26653	36093	37598
2649	0	27208	32602	42948	25093
2650	0	41701	29715	38278	42945
2651	0	32065	44036	37122	40993
2652	0	44228	36485	25424	30416
2653	0	31270	28135	43782	28102
2654	0	39586	36738	30367	32935
2655	0	32746	41306	44158	25897
2656	0	35887	32569	26327	44493
2657	0	28046	38838	37600	42450
2658	0	29062	43194	26538	40170
2659	0	34358	26235	33610	28616
2660	0	44226	38150	25029	42461
2661	0	32490	42461	37525	26352
2662	0	30769	33549	41359	42010
2663	0	39334	33571	38126	39490
2664	0	39009	32245	34249	36512
2665	0	33607	39011	27981	35907
2666	0	39412	26708	42124	37519
2667	0	37039	31342	42164	33194
2668	0	36643	38677	42264	26942
2669	0	34167	44043	25104	30889
2670	0	32549	39078	33407	28595
2671	0	29476	28739	31192	37821
2672	0	34857	26008	31744	42906
2673	0	32157	25767	34902	44200
2674	0	40195	33477	28933	37177
2675	0	31554	38052	29032	44858
2676	0	42810	42713	41489	41588
2677	0	33814	36501	37525	26781
2678	0	29051	43729	33953	27888
2679	0	35577	29488	41796	26491
2680	0	27604	40704	25512	38835
2681	0	44077	40105	38106	34479
2682	0	36522	27131	32923	40600
2683	0	33105	34471	28756	29636
2684	0	33828	26709	32621	32874
2685	0	38692	31119	27132	37458
2686	0	35663	37352	37876	36189
2687	0	31471	34261	35417	27379
2688	0	28831	40630	38854	25840
2689	0	32981	38821	39109	37358
2690	0	36469	28297	32839	42529
2691	0	38559	25469	36450	34928
2692	0	35609	28863	36841	43156
2693	0	25895	39436	28549	36714
2694	0	33152	28824	33714	34210
2695	0	37991	43739	42098	30482
2696	0	35826	33490	32509	26437
2697	0	31352	38117	38564	36259
2698	0	43041	39927	33234	26637
2699	0	32313	27618	33124	28979
2700	0	44371	30322	26673	32455
2701	0	36462	27321	41285	39561
2702	0	40625	33853	30126	27623
2703	0	35145	39244	40054	41135
2704	0	31185	31755	39171	25959
2705	0	27529	26229	44974	38220
2706	0	31663	28894	41183	39699
2707	0	26154	30625	43863	35057
2708	0	41189	27368	44750	43568
2709	0	41977	25859	29139	44788
2710	0	42136	26241	38478	27854
2711	0	44694	36093	30638	27190
2712	0	31172	37104	37354	25713
2713	0	28114	28174	31627	36599
2714	0	37153	33747	27744	25349
2715	0	39962	32225	39654	30843
2716	0	42034	26073	28639	39450
2717	0	41812	40966	29842	44146
2718	0	44947	39247	33144	42612
2719	0	27173	42782	34505	40725
2720	0	28994	44045	25623	28070
2721	0	35740	32827	29162	32428
2722	0	30108	35349	44193	37870
2723	0	28113	26474	28313	38506
2724	0	36318	29881	44588	40018
2725	0	37246	26131	40866	31327
2726	0	43823	38887	30450	44847
2727	0	25595	30425	39838	36986
2728	0	28612	38889	43636	32686
2729	0	34114	30791	42411	39195
2730	0	39617	43494	25377	40362
2731	0	43258	26673	25220	42033
2732	0	38519	25102	26345	36786
2733	0	37505	37065	40647	31897
2734	0	44302	26002	42862	42997
2735	0	37194	29967	25822	31726
2736	0	42331	33518	26988	39770
2737	0	29993	31644	36753	31645
2738	0	36812	30058	31247	37591
2739	0	38049	37842	28339	36550
2740	0	33947	33055	30079	39764
2741	0	26790	30043	29596	32777
2742	0	40702	34369	27470	26354
2743	0	33278	41195	34552	31066
2744	0	37241	42605	26349	40621
2745	0	37795	33247	39156	41005
2746	0	30187	39020	44844	35802
2747	0	27627	27780	28741	28636
2748	0	31241	26300	28020	28327
2749	0	26261	42062	33810	25294
2750	0	27839	29329	26446	36389
2751	0	36704	33234	25883	30074
2752	0	34136	27531	32577	38443
2753	0	32823	42175	28989	43647
2754	0	39141	42121	42950	41703
2755	0	39295	31465	30719	26069
2756	0	26368	33681	30776	32263
2757	0	38820	32432	27575	28013
2758	0	31414	42272	43835	42145
2759	0	35177	43503	25586	36479
2760	0	33382	35712	31204	36432
2761	0	30491	42138	29281	36312
2762	0	37333	34814	35731	42993
2763	0	37398	36628	38749	37867
2764	0	41155	28094	44671	27153
2765	0	36814	25954	37559	36634
2766	0	29590	29742	27325	28907
2767	0	44952	29246	30444	33693
2768	0	26997	42718	36412	29772
2769	0	32847	29763	42333	28540
2770	0	37183	42276	44073	38679
2771	0	38751	42732	32670	38143
2772	0	35381	44603	36116	32268
2773	0	35953	41347	37115	28491
2774	0	35935	26064	41618	28159
2775	0	28349	34145	28098	29443
2776	0	39687	33699	44316	43845
2777	0	42420	31569	26316	34717
2778	0	40646	28785	36322	42322
2779	0	28680	40989	36157	28956
2780	0	39947	38380	43786	38419
2781	0	35791	35221	37694	27315
2782	0	27625	36613	38718	32055
2783	0	33872	40285	44264	39982
2784	0	39200	31744	44301	32534
2785	0	44064	30409	29620	31872
2786	0	42323	27134	25224	39836
2787	0	41230	38424	40444	42839
2788	0	26369	38941	36137	43614
2789	0	25567	32909	41878	37740
2790	0	37219	44587	25598	31435
2791	0	32784	44725	36291	44690
2792	0	42017	39286	40738	31758
2793	0	25425	35007	31318	38455
2794	0	29816	42430	44783	33135
2795	0	40877	40185	26025	39304
2796	0	42155	43455	26443	26963
2797	0	31243	40677	29349	44579
2798	0	41686	39276	32491	28402
2799	0	25588	25986	41949	31896
2800	0	42086	40035	42668	38681
2801	0	40833	27068	36620	37085
2802	0	37301	32946	37710	39108
2803	0	40487	25830	38532	43509
2804	0	35684	32977	35518	32291
2805	0	25530	42177	44820	41824
2806	0	32769	31667	27108	27180
2807	0	27804	33393	44012	25005
2808	0	29155	38298	33395	28582
2809	0	28977	29551	32562	35824
2810	0	28602	28206	35448	38116
2811	0	28673	41644	38224	30448
2812	0	37502	33642	27508	31444
2813	0	34154	35270	40113	30690
2814	0	28148	38615	41476	27787
2815	0	30521	28676	30974	40571
2816	0	37005	26256	29564	37501
2817	0	26426	36886	32770	27308
2818	0	36534	29479	38030	40910
2819	0	35207	44310	26096	37127
2820	0	28306	31153	36398	40111
2821	0	37306	43139	42327	40031
2822	0	42773	37504	33214	35299
2823	0	32595	38068	39205	33604
2824	0	35345	43684	27233	27264
2825	0	34846	30753	27536	29131
2826	0	37670	29148	36230	35406
2827	0	28731	26749	38015	26650
2828	0	26491	37877	40089	39582
2829	0	30300	43514	44154	28328
2830	0	35233	25716	35173	26859
2831	0	35174	27008	40441	44309
2832	0	32707	32601	38123	30577
2833	0	42301	31485	34957	38810
2834	0	38573	42452	32384	43100
2835	0	30278	31069	28755	34197
2836	0	36351	26090	40864	25622
2837	0	25743	44318	27035	25758
2838	0	32708	25366	38489	27088
2839	0	38117	41483	33249	41213
2840	0	37638	36175	41255	32490
2841	0	37595	40097	26790	39614
2842	0	38519	33213	34404	35874
2843	0	36750	27136	28417	40041
2844	0	36941	35991	39074	41489
2845	0	27198	25404	36137	44344
2846	0	41089	26984	44903	30045
2847	0	35055	33284	40879	35486
2848	0	40320	27355	32389	25651
2849	0	43419	41886	39391	30685
2850	0	28375	30976	27696	39036
2851	0	40836	26867	33816	32353
2852	0	30195	40773	43147	29445
2853	0	36917	26367	42323	43852
2854	0	29928	30401	34303	28398
2855	0	38097	37979	33816	39813
2856	0	26660	32030	32775	34025
2857	0	39918	43205	39402	38242
2858	0	37300	36327	43696	31163
2859	0	25902	30722	42595	35227
2860	0	44127	29731	39884	43506
2861	0	36787	25847	32144	25863
2862	0	44743	30407	34975	42975
2863	0	34906	44879	25431	29096
2864	0	38731	30210	33339	26376
2865	0	33428	28231	40246	28441
2866	0	43607	29307	44253	44312
2867	0	37909	38918	34666	40299
2868	0	28999	40976	33674	40446
2869	0	43079	42190	43158	25392
2870	0	32128	36067	31609	35471
2871	0	33883	32130	37326	26996
2872	0	30875	40177	34970	33487
2873	0	38576	28603	34028	25014
2874	0	42308	26687	42071	44757
2875	0	38365	36774	41652	33471
2876	0	30810	28273	36896	31845
2877	0	40216	31084	35210	25219
2878	0	26601	31637	43937	36233
2879	0	27613	32132	35107	36303
2880	0	36271	26167	40152	41316
2881	0	37196	33270	30187	31834
2882	0	31628	36068	34272	29446
2883	0	37688	25500	35281	32376
2884	0	28515	33305	25351	36458
2885	0	36850	29274	29939	25388
2886	0	44638	32963	28406	25547
2887	0	42557	28582	36304	35004
2888	0	26574	36233	25852	40475
2889	0	32938	31432	26339	31269
2890	0	41337	40305	31065	28846
2891	0	40547	26591	40971	42775
2892	0	39234	42866	31584	34512
2893	0	34939	34824	43826	35595
2894	0	40029	39094	31771	32331
2895	0	26816	43839	25043	38022
2896	0	42744	29473	42652	25985
2897	0	28040	28698	31017	29060
2898	0	36964	35915	27771	37311
2899	0	25135	36753	25809	38913
2900	0	30472	37245	25059	25657
2901	0	28335	34170	25089	26451
2902	0	35556	42348	39276	37693
2903	0	29947	40696	25410	42998
2904	0	31903	40520	38281	27264
2905	0	26765	36336	33101	27249
2906	0	42606	35659	34238	38092
2907	0	38410	25108	40927	37670
2908	0	31196	42258	25737	29687
2909	0	32435	25680	29264	27827
2910	0	43010	34444	36630	43953
2911	0	26872	30247	36481	36857
2912	0	44216	30645	39048	44806
2913	0	39039	36689	26230	30879
2914	0	26313	41283	37875	30635
2915	0	40960	36216	30228	29752
2916	0	27367	27554	38255	41248
2917	0	31746	32492	28845	26164
2918	0	28469	32587	40849	40031
2919	0	43170	32190	41501	25166
2920	0	34505	34912	25389	38595
2921	0	26150	42523	41880	34949
2922	0	31542	34612	33464	28767
2923	0	43677	25747	30820	39736
2924	0	41047	31327	38173	33092
2925	0	37288	25995	38299	40765
2926	0	27721	35129	41562	37545
2927	0	33044	26894	43703	38964
2928	0	31658	26560	27865	34868
2929	0	41787	41843	35692	26404
2930	0	35717	28596	30699	26803
2931	0	44987	44604	26534	37745
2932	0	44310	41706	40530	43005
2933	0	37437	26876	36824	29487
2934	0	36814	43103	35003	33723
2935	0	35869	25464	38458	27500
2936	0	34608	34057	37821	44656
2937	0	31538	44104	31265	44893
2938	0	25264	28479	37956	27740
2939	0	30022	33005	31799	37938
2940	0	38965	37119	44603	37578
2941	0	29169	27931	33023	41123
2942	0	28340	30374	33044	40446
2943	0	41764	33519	37807	34598
2944	0	35463	44263	35543	35245
2945	0	35578	34307	41452	36446
2946	0	44426	30306	30680	37753
2947	0	36331	31850	31819	38588
2948	0	25917	28138	36673	37388
2949	0	40423	28682	38037	36288
2950	0	42208	29812	41546	33124
2951	0	41849	42579	30603	28380
2952	0	31781	25642	43711	40136
2953	0	29510	26675	30948	25059
2954	0	31784	29454	34080	36317
2955	0	42946	27405	40449	27423
2956	0	38980	40121	44966	37367
2957	0	27219	42976	32572	29480
2958	0	27868	25043	39099	37671
2959	0	38400	29209	39604	33652
2960	0	34986	37525	34450	27616
2961	0	32685	29757	40849	30552
2962	0	31248	41123	31560	29165
2963	0	42418	29618	44444	35628
2964	0	28861	32090	29784	34223
2965	0	36582	44619	44515	40523
2966	0	37057	39317	32041	37449
2967	0	37199	40417	38440	31306
2968	0	43619	34021	36292	42408
2969	0	27664	41170	40844	31691
2970	0	34451	26531	44580	41090
2971	0	26573	25151	30275	38229
2972	0	26850	42561	42868	37455
2973	0	25322	30907	41851	39140
2974	0	26044	34758	26774	41827
2975	0	28076	25652	40503	32444
2976	0	43554	33525	32265	43356
2977	0	34649	30380	29253	38068
2978	0	42481	33862	34985	44357
2979	0	43733	41564	35382	27090
2980	0	27896	33340	32436	42481
2981	0	27759	42150	39543	25280
2982	0	43156	38323	37021	35497
2983	0	26183	28026	28183	32076
2984	0	36850	25734	28808	38166
2985	0	30965	34726	40983	33977
2986	0	29074	39174	36817	34427
2987	0	30929	33453	43591	34456
2988	0	26158	36045	35721	26386
2989	0	26025	29854	34505	26347
2990	0	33825	43810	26217	27320
2991	0	31845	40593	31057	42854
2992	0	25480	44732	44842	40589
2993	0	36447	44224	30689	33458
2994	0	38314	33050	26009	30790
2995	0	39081	42199	27515	42419
2996	0	36339	40619	25617	38633
2997	0	30606	27667	31209	40944
2998	0	41879	38233	44805	30429
2999	0	30476	30215	31366	42846
3000	0	35839	26845	30998	44507
3001	0	28060	44381	37633	31048
3002	0	27540	26317	30035	26359
3003	0	34564	29467	33481	30650
3004	0	41046	36403	37178	34256
3005	0	32718	44271	25023	35623
3006	0	44827	29602	37324	35873
3007	0	39517	38307	38557	41477
3008	0	28610	32975	34157	41966
3009	0	36891	30990	42373	36355
3010	0	40588	42614	39169	27071
3011	0	31475	40780	26933	39065
3012	0	37415	41874	39726	30300
3013	0	33297	36104	30826	34127
3014	0	31340	28016	43616	44308
3015	0	37421	36493	29568	36082
3016	0	44206	40320	26266	29063
3017	0	26514	30890	30924	43909
3018	0	30748	31456	28377	39780
3019	0	37211	34569	39677	39357
3020	0	42912	28498	32859	38476
3021	0	38438	29156	37833	33750
3022	0	28290	35687	39441	33126
3023	0	36935	32982	30975	34934
3024	0	38257	31992	31523	28003
3025	0	37855	37744	43153	31640
3026	0	39697	26150	25114	27843
3027	0	37561	33568	40747	31801
3028	0	32838	44907	27698	27015
3029	0	35044	42196	38645	43979
3030	0	27111	31674	32958	26727
3031	0	38522	41367	32327	27116
3032	0	26333	26171	27995	32409
3033	0	27835	32806	42928	30489
3034	0	42757	30816	40928	28080
3035	0	41820	43842	32466	31766
3036	0	42324	28056	41143	35274
3037	0	40804	42205	31728	25513
3038	0	42381	41509	40988	30565
3039	0	36534	25980	37389	30089
3040	0	31534	41221	41757	32344
3041	0	29630	39915	37584	36245
3042	0	35870	42224	42018	26170
3043	0	39838	42845	26866	25507
3044	0	29812	42858	30580	43753
3045	0	35567	29593	34648	30530
3046	0	43332	41262	25028	25595
3047	0	32860	29960	31089	30553
3048	0	29448	28259	42107	29532
3049	0	40160	28362	29006	29698
3050	0	39371	44824	40002	42131
3051	0	29599	33612	31641	28597
3052	0	30033	27214	29707	36783
3053	0	35367	25590	28553	25927
3054	0	29958	37431	39333	39591
3055	0	31081	44492	26366	34261
3056	0	29398	32763	40503	36853
3057	0	41694	25691	33919	29470
3058	0	25072	30432	43515	37629
3059	0	39177	32770	41952	39322
3060	0	31409	40168	39993	29068
3061	0	31801	29590	33569	29518
3062	0	33554	28159	40391	26833
3063	0	35228	36172	39605	28721
3064	0	29720	26847	40799	40824
3065	0	32461	34131	26054	30745
3066	0	42421	41067	36590	37134
3067	0	39392	40777	43652	28178
3068	0	26551	33746	36095	30798
3069	0	30047	40536	30881	28254
3070	0	33269	30975	43156	36513
3071	0	40573	25288	43935	38507
3072	0	29599	38774	33257	38611
3073	0	44830	37216	41472	32245
3074	0	28744	29012	33666	35838
3075	0	35785	38207	39559	37912
3076	0	39779	40252	28476	30523
3077	0	33867	29296	37730	32922
3078	0	32989	34713	34921	38701
3079	0	41909	38285	42480	40772
3080	0	41544	43612	31174	40341
3081	0	34403	32602	38701	36401
3082	0	36003	29421	35358	31517
3083	0	43288	35407	43693	34286
3084	0	33325	27739	34495	40915
3085	0	43910	26588	28094	44495
3086	0	26543	40651	41279	28471
3087	0	31319	30499	31330	44350
3088	0	33744	36141	36210	42002
3089	0	32516	43590	39987	33033
3090	0	41496	35594	35295	31369
3091	0	33679	28937	41524	39692
3092	0	43552	30714	38801	26767
3093	0	35997	28616	40484	26316
3094	0	34625	31801	41287	28320
3095	0	44749	34863	36648	36080
3096	0	37817	30566	30735	39670
3097	0	43851	38432	38909	28036
3098	0	26987	35012	44067	34697
3099	0	26764	25670	32423	31689
3100	0	39088	35677	27188	36099
3101	0	44094	28885	34404	39186
3102	0	35915	40028	42152	27718
3103	0	38334	25326	27075	36949
3104	0	33715	31499	31338	38266
3105	0	30560	27577	44090	36131
3106	0	40099	32845	29909	43432
3107	0	29224	34555	37245	34304
3108	0	32409	27122	35880	35226
3109	0	33920	43361	43985	33986
3110	0	29540	38154	39605	28248
3111	0	39389	29309	41501	40640
3112	0	32655	37496	35479	29768
3113	0	27504	39597	29340	28753
3114	0	33181	42858	32156	42157
3115	0	26318	44082	36360	31454
3116	0	44813	44389	27622	31202
3117	0	42047	33440	42081	43201
3118	0	28294	42375	25162	32226
3119	0	30958	35137	43385	37534
3120	0	34336	30814	26739	41332
3121	0	29721	31220	42149	38852
3122	0	30613	34882	30690	44999
3123	0	33579	41765	36185	27133
3124	0	27603	35513	36287	27804
3125	0	28905	30184	37542	31622
3126	0	38382	27034	44587	32103
3127	0	33498	37764	41596	25414
3128	0	27297	29506	41197	36555
3129	0	26412	29260	29764	44062
3130	0	27464	42784	29800	30243
3131	0	37860	28359	42470	26164
3132	0	33734	39161	44850	36735
3133	0	25261	31005	25635	31851
3134	0	38086	26628	28938	44012
3135	0	39299	27416	33031	29400
3136	0	42257	38063	42103	35346
3137	0	25704	33605	31954	27319
3138	0	44692	37865	29256	42691
3139	0	43126	40102	42932	35742
3140	0	40440	40632	31373	30251
3141	0	41942	25073	44990	37810
3142	0	39725	29813	44451	43273
3143	0	26377	38694	40184	34977
3144	0	26485	43142	34677	25886
3145	0	41077	40380	27427	26110
3146	0	29941	37758	31735	40110
3147	0	38479	43687	38642	29906
3148	0	36911	30467	26770	32085
3149	0	40573	40337	44019	43177
3150	0	28947	42304	34376	35156
3151	0	26107	31468	43037	32775
3152	0	36411	36906	29632	35812
3153	0	42871	34960	39962	37513
3154	0	39006	44365	32505	43374
3155	0	33828	30000	42496	41064
3156	0	27335	43324	38337	25666
3157	0	25503	41909	44657	35218
3158	0	31683	33879	26088	29856
3159	0	35511	37956	31614	35431
3160	0	26235	26243	36745	41210
3161	0	38121	44861	35961	44236
3162	0	25526	30391	36375	26392
3163	0	41599	35592	34130	41408
3164	0	34901	40383	37787	33122
3165	0	28840	31016	30044	41339
3166	0	39056	36061	29329	40491
3167	0	35121	28494	42353	42094
3168	0	30768	36447	33040	39461
3169	0	31715	25878	25110	36193
3170	0	31799	43922	36511	40542
3171	0	38504	28254	41718	30427
3172	0	25369	35135	27087	25153
3173	0	44220	42330	35477	35294
3174	0	34979	41234	44792	36010
3175	0	40690	26235	35098	25549
3176	0	33001	36171	35041	44851
3177	0	34041	44931	30966	37126
3178	0	35500	39117	28372	36746
3179	0	35701	37037	34829	26002
3180	0	30148	43508	30188	33730
3181	0	37874	37070	42778	25536
3182	0	29973	33981	43872	38849
3183	0	29125	42414	31533	40612
3184	0	31748	29113	42552	37776
3185	0	30770	41804	37041	40615
3186	0	29487	28987	35930	25952
3187	0	43433	37578	31833	28675
3188	0	28164	31978	32527	44513
3189	0	42457	41179	29542	26420
3190	0	38952	29567	36252	33254
3191	0	42188	27120	35972	40245
3192	0	35323	38918	29324	29865
3193	0	33716	41819	43216	25732
3194	0	40064	29153	26581	33102
3195	0	35311	25748	43920	37175
3196	0	44318	30018	42798	31911
3197	0	37915	28643	41514	28480
3198	0	35601	44109	37545	40118
3199	0	35746	29977	39563	36206
3200	0	44125	40584	43859	44772
3201	0	30985	34574	37640	36541
3202	0	41965	40409	42979	27470
3203	0	41804	40256	31954	38832
3204	0	25941	28352	29986	33757
3205	0	41679	33471	28712	42126
3206	0	34413	28885	40182	37049
3207	0	36715	44247	38354	36130
3208	0	33297	30275	42342	34808
3209	0	30898	40724	33426	34622
3210	0	40554	28985	29067	30594
3211	0	36412	30573	30616	38213
3212	0	35062	39790	33827	40644
3213	0	27471	31863	40420	36288
3214	0	34790	32665	42243	44969
3215	0	37711	43630	31480	28241
3216	0	36133	31932	26945	34463
3217	0	25339	38207	33204	31757
3218	0	42097	32689	39680	35898
3219	0	36324	25769	37870	34890
3220	0	32058	37102	26124	43366
3221	0	43365	38210	25131	36932
3222	0	38470	40904	36170	42585
3223	0	38124	34395	31867	31372
3224	0	29311	32612	34068	36699
3225	0	32039	26403	28006	29777
3226	0	43896	29870	29348	43597
3227	0	32192	31353	31002	37713
3228	0	40873	27237	33908	28075
3229	0	36885	34169	41196	41785
3230	0	42928	29271	28466	40226
3231	0	26897	26010	25614	33313
3232	0	30772	31659	36191	32719
3233	0	41403	27386	36041	35786
3234	0	32172	25997	26239	42304
3235	0	30104	44913	38038	42413
3236	0	43240	25261	25864	33888
3237	0	31474	38006	44028	30344
3238	0	30409	41330	43729	44262
3239	0	38350	27417	41637	36151
3240	0	31451	37041	28809	33561
3241	0	43974	31691	35178	33983
3242	0	38788	30429	27378	36311
3243	0	33540	26831	39681	43479
3244	0	44170	38832	30557	31000
3245	0	30585	33941	31217	36558
3246	0	32496	41566	28524	36813
3247	0	31386	27776	29373	27378
3248	0	34832	38574	42521	28870
3249	0	34267	29380	31442	30299
3250	0	36858	35632	33295	34454
3251	0	32692	42245	38894	29526
3252	0	33554	44121	28504	31163
3253	0	26857	42629	26485	39380
3254	0	34850	29898	29025	43087
3255	0	38541	27767	30345	36624
3256	0	43216	38186	31871	30070
3257	0	32014	38343	27930	35307
3258	0	35438	29698	31199	26040
3259	0	34477	37647	29327	27745
3260	0	37629	38601	39990	32789
3261	0	35218	25463	42517	36357
3262	0	34834	33348	34189	43688
3263	0	43722	33301	43100	36945
3264	0	40012	25333	29611	31467
3265	0	41936	44106	42540	25985
3266	0	38979	33866	29054	35384
3267	0	37410	36248	25529	28618
3268	0	41883	29560	41034	27683
3269	0	32882	44394	32284	29111
3270	0	29131	43420	43478	27944
3271	0	35885	32585	32183	44475
3272	0	32283	26187	44612	38599
3273	0	38256	35726	35811	26423
3274	0	40800	39924	42587	26117
3275	0	36976	42104	32591	26512
3276	0	29175	44983	32375	38891
3277	0	41864	41818	41398	42049
3278	0	29594	27589	35168	35707
3279	0	32022	29399	29344	30355
3280	0	35124	42588	38505	41411
3281	0	43079	28126	44682	28872
3282	0	27676	35342	38065	38079
3283	0	27168	30841	42517	26679
3284	0	30482	30097	27837	33796
3285	0	27348	27420	28695	37657
3286	0	27995	33976	31073	41926
3287	0	29536	30423	32606	37177
3288	0	29224	29042	35906	25229
3289	0	29316	27917	31136	35691
3290	0	25869	33247	43791	36253
3291	0	39441	38381	30560	25770
3292	0	28874	38916	33729	25214
3293	0	43071	28980	44666	33183
3294	0	30613	25307	27715	36612
3295	0	42162	29408	35161	34802
3296	0	30126	41414	42272	41804
3297	0	25662	30729	38103	37670
3298	0	32546	40165	35579	36895
3299	0	44867	35592	34598	34170
3300	0	42490	31526	25748	35256
3301	0	30794	41032	38839	31370
3302	0	42783	42221	31535	36855
3303	0	30331	40979	41312	28597
3304	0	34629	25576	35279	26957
3305	0	44343	28242	35765	39504
3306	0	37266	27837	31818	29040
3307	0	43122	35159	42717	34492
3308	0	44607	29328	38660	37020
3309	0	42491	27218	34347	26622
3310	0	38445	43893	36817	40376
3311	0	34821	26709	37080	41827
3312	0	29011	41927	37556	36793
3313	0	34432	27527	42950	43598
3314	0	26257	29959	34955	34915
3315	0	26591	27444	39844	42759
3316	0	36008	43472	25104	28066
3317	0	36150	29331	31066	43139
3318	0	35756	44160	43273	25383
3319	0	33410	44365	36724	37858
3320	0	42248	33741	37264	37744
3321	0	33373	36549	41264	39823
3322	0	32677	42892	36646	28875
3323	0	27364	25946	44489	29427
3324	0	38152	25325	43474	40451
3325	0	28837	26184	44080	44406
3326	0	32290	42815	33190	31695
3327	0	44946	31413	40213	27732
3328	0	32601	26071	33903	27910
3329	0	27484	33919	40733	44101
3330	0	44583	27695	28897	40151
3331	0	42179	27304	44297	39883
3332	0	40752	38848	34622	41743
3333	0	29540	31601	29401	33669
3334	0	27024	35052	37484	28504
3335	0	25069	33858	29530	43099
3336	0	32252	44525	27329	39441
3337	0	43236	32885	39548	33387
3338	0	43223	31649	34236	26600
3339	0	37822	33333	30758	37587
3340	0	34276	32394	37775	31971
3341	0	32389	38661	41063	31181
3342	0	25371	33813	41863	31398
3343	0	36183	26326	28510	38310
3344	0	27087	34379	32509	38387
3345	0	31403	27992	33781	38313
3346	0	30418	29150	31684	38361
3347	0	29874	28163	33444	38606
3348	0	37343	28089	27904	28571
3349	0	35476	44974	35099	28764
3350	0	27168	41390	30769	33424
3351	0	30901	37277	27345	36256
3352	0	38197	38985	31078	42630
3353	0	41695	25221	27575	26779
3354	0	31432	39781	42305	27360
3355	0	38893	41949	42062	41975
3356	0	33296	38989	36724	38725
3357	0	41030	30937	42499	32019
3358	0	32790	37522	41191	44262
3359	0	41165	31520	26807	42431
3360	0	39654	31280	33867	28104
3361	0	25670	26826	31723	33910
3362	0	32121	34671	37438	30403
3363	0	29526	38390	36828	27346
3364	0	33416	44198	28434	34580
3365	0	39269	38724	36541	37657
3366	0	34975	33810	27545	42735
3367	0	36668	39066	35429	27474
3368	0	40961	34510	30200	36216
3369	0	31865	28045	31068	26129
3370	0	30491	31608	37785	28735
3371	0	31431	35814	31920	33352
3372	0	39517	44080	27051	37088
3373	0	30050	28193	39520	37968
3374	0	31600	30737	25768	29771
3375	0	28641	28085	40661	35827
3376	0	34048	25800	38203	38494
3377	0	36958	35688	40704	29750
3378	0	29850	25463	30943	27257
3379	0	32338	31790	44903	26534
3380	0	44838	39147	32271	37243
3381	0	36270	38474	30773	32423
3382	0	29457	34317	31378	25505
3383	0	30485	26180	37219	43652
3384	0	37064	33134	30149	27913
3385	0	29082	33035	36155	28049
3386	0	37944	29517	29729	35398
3387	0	34674	42410	33094	30311
3388	0	37472	32737	34704	33228
3389	0	26427	36972	31522	38929
3390	0	40633	29810	31154	42386
3391	0	38764	25093	38146	42267
3392	0	28313	37968	36310	44881
3393	0	30089	27494	33325	31289
3394	0	38111	38913	39870	25184
3395	0	37467	25230	43943	29738
3396	0	25783	43432	43776	33205
3397	0	32816	44668	42513	30923
3398	0	44217	28611	29362	27516
3399	0	34367	40015	31402	40380
3400	0	34775	30845	39742	25474
3401	0	40530	32745	40526	31233
3402	0	29848	27668	32825	28887
3403	0	25880	37633	29988	42365
3404	0	31687	32843	28913	43074
3405	0	28294	41665	27451	30100
3406	0	30236	37484	42093	33506
3407	0	36074	34801	25516	36323
3408	0	31158	42962	40327	30308
3409	0	28220	29812	43619	36111
3410	0	26834	26458	36051	28267
3411	0	35247	39561	44852	26924
3412	0	41446	43705	39274	42933
3413	0	38339	35567	32731	34275
3414	0	36929	41830	39266	29456
3415	0	39352	34715	36135	25007
3416	0	29837	33417	25913	44679
3417	0	41158	34959	32123	37693
3418	0	33400	32043	33994	42363
3419	0	28120	35158	28058	28028
3420	0	30577	31739	29938	35483
3421	0	32756	25288	30656	25083
3422	0	25029	28531	37805	39296
3423	0	38458	30346	33075	32330
3424	0	44984	25924	26121	33129
3425	0	41257	34206	37117	35909
3426	0	31344	31135	37872	30078
3427	0	38855	27663	39665	34079
3428	0	27892	27115	40618	32510
3429	0	37890	38808	25511	42867
3430	0	28189	41801	39022	41810
3431	0	31398	42755	34325	36968
3432	0	39423	35942	25157	40383
3433	0	38302	32834	40381	34831
3434	0	39798	39079	43933	31479
3435	0	41641	36628	42045	37425
3436	0	43881	28002	27246	35268
3437	0	34776	36253	33935	25475
3438	0	25412	41678	35383	28767
3439	0	40445	39965	25783	43940
3440	0	37827	25035	32105	36512
3441	0	25501	34460	30376	41785
3442	0	29258	35647	26627	43213
3443	0	36014	29760	38738	39485
3444	0	38553	37211	43036	28598
3445	0	43598	27416	32726	28427
3446	0	30223	29798	38292	38660
3447	0	25710	41910	40097	29199
3448	0	25058	30798	38611	41945
3449	0	27324	44677	33300	40766
3450	0	29138	28413	28615	26780
3451	0	33322	31869	25621	32478
3452	0	42842	37988	27167	28458
3453	0	25204	40014	42085	32685
3454	0	38626	44590	41327	39017
3455	0	36182	41718	34782	43404
3456	0	38942	43689	39331	31755
3457	0	34208	34790	39054	37680
3458	0	39000	34286	25477	43314
3459	0	41740	34015	28953	35312
3460	0	36164	38949	39502	31414
3461	0	25326	39559	40082	28854
3462	0	30241	32948	28855	36071
3463	0	30898	33864	34475	26572
3464	0	25587	43825	28267	25711
3465	0	44025	31242	29719	33296
3466	0	30206	31543	37376	40038
3467	0	30709	44960	36622	38565
3468	0	32485	39853	35377	33084
3469	0	30192	27126	36399	37918
3470	0	41656	27137	32397	33808
3471	0	40629	35736	36568	44532
3472	0	32488	40901	30463	27294
3473	0	30228	29900	28786	33044
3474	0	44118	28530	30092	33525
3475	0	31614	42136	39861	32490
3476	0	38199	34888	40774	35084
3477	0	27665	39399	43170	42294
3478	0	44626	35001	39073	39126
3479	0	34580	25486	39475	29809
3480	0	27414	25376	39910	33374
3481	0	27932	33582	37966	42995
3482	0	44484	36433	27162	40557
3483	0	44338	28486	31431	38873
3484	0	43926	38843	32090	43958
3485	0	34468	32711	41115	27195
3486	0	30297	26868	33999	42061
3487	0	38555	25434	35037	30778
3488	0	28028	38092	33735	32303
3489	0	34494	41958	43736	39816
3490	0	31632	42065	38151	31999
3491	0	31827	34511	34169	31084
3492	0	39555	32518	29723	43374
3493	0	25119	34956	32892	35885
3494	0	40412	25881	44587	26703
3495	0	33532	33660	26548	28495
3496	0	43946	41316	35850	31055
3497	0	26421	43775	35069	32740
3498	0	39112	32069	26275	36860
3499	0	26418	35255	33101	25820
3500	0	27677	30328	44991	27582
3501	0	28934	39519	35336	42547
3502	0	39939	30646	44885	26730
3503	0	41317	43338	33172	30270
3504	0	28787	28027	30423	43649
3505	0	25511	39071	25772	35949
3506	0	44698	35435	39714	27163
3507	0	34422	28334	31066	31953
3508	0	40853	26543	36794	41213
3509	0	28741	42848	37490	42061
3510	0	29819	41026	27171	30622
3511	0	33219	26453	30643	27170
3512	0	26712	42286	26976	31438
3513	0	39256	25083	44602	39018
3514	0	28301	26925	26975	44816
3515	0	26275	30258	28909	39199
3516	0	40975	40868	25533	42258
3517	0	33685	34710	40798	41031
3518	0	32450	28123	40761	43785
3519	0	29821	44482	38426	42665
3520	0	28513	31235	38930	40440
3521	0	42720	42156	36110	28322
3522	0	28885	44434	30540	32206
3523	0	26244	29588	31470	26496
3524	0	42573	41237	42456	36652
3525	0	34131	39341	33938	29063
3526	0	36149	43959	36145	40890
3527	0	35322	39749	35228	33021
3528	0	37753	42258	39893	26279
3529	0	32688	37443	35962	41170
3530	0	32441	41584	41667	31766
3531	0	32131	35692	44376	32462
3532	0	37569	38814	44357	41994
3533	0	42482	35015	30983	41009
3534	0	29385	36809	33669	33762
3535	0	35545	33552	43615	27784
3536	0	33746	40293	29306	29737
3537	0	25401	33448	29631	28594
3538	0	42541	38903	34575	36642
3539	0	40884	28964	26310	26860
3540	0	31615	38657	30645	34600
3541	0	34735	42160	35230	25971
3542	0	27804	30672	42027	34340
3543	0	36180	43041	35080	36454
3544	0	39217	27942	35966	30226
3545	0	32982	39143	36100	43580
3546	0	26499	36879	31711	43319
3547	0	35420	31580	30526	31798
3548	0	36322	28746	31388	36016
3549	0	29807	35320	40837	43246
3550	0	39108	38380	28852	31310
3551	0	38695	31521	29820	40253
3552	0	40309	38775	37754	30459
3553	0	26728	41480	36006	38546
3554	0	30726	28822	34791	33409
3555	0	44600	34029	44097	36817
3556	0	29823	44436	40538	25206
3557	0	40097	32935	32255	25721
3558	0	32076	25991	34703	35758
3559	0	38201	29954	35960	31048
3560	0	33490	38025	43096	31356
3561	0	40805	43477	27652	28708
3562	0	39595	35706	28059	34623
3563	0	38462	34429	33825	40386
3564	0	26722	33569	38559	37157
3565	0	26545	26747	35821	27182
3566	0	25218	42834	39221	29494
3567	0	27318	40779	26106	41723
3568	0	43219	41161	31258	41069
3569	0	43278	37712	28162	28708
3570	0	34408	34356	42193	36167
3571	0	33185	32612	39186	39618
3572	0	38845	41994	25686	39280
3573	0	29464	40119	42907	41750
3574	0	30688	33211	30074	39235
3575	0	37420	31072	42717	33965
3576	0	31964	39748	41125	27884
3577	0	40821	25153	30975	32254
3578	0	38932	42559	43480	31966
3579	0	33996	34720	30730	37718
3580	0	35775	44052	38082	44551
3581	0	41395	44262	30612	25443
3582	0	29109	33428	35157	29948
3583	0	43080	28184	40933	28964
3584	0	28627	43493	31622	31086
3585	0	43279	43157	37407	39801
3586	0	43337	41131	32380	44448
3587	0	31486	35212	31233	33904
3588	0	44950	43542	39577	40840
3589	0	34579	35259	36922	27384
3590	0	27638	43904	28579	37195
3591	0	30845	39443	37549	26074
3592	0	26104	41471	42700	42544
3593	0	39846	32096	25969	32102
3594	0	41371	30573	43133	34459
3595	0	34642	28150	38679	29089
3596	0	33756	27596	42781	37484
3597	0	42889	38348	31842	35137
3598	0	42832	27542	30156	42880
3599	0	26269	38439	39234	25096
3600	0	27808	30308	34983	28758
3601	0	38797	27933	29062	35885
3602	0	27726	33748	42387	30403
3603	0	31620	39813	38573	25006
3604	0	32480	39967	27960	31486
3605	0	32205	33998	37786	42284
3606	0	27960	29916	38149	44477
3607	0	42236	44172	37398	37389
3608	0	42173	44021	42145	25163
3609	0	29425	31655	38033	44539
3610	0	30795	27628	42161	33027
3611	0	28096	39451	40273	25016
3612	0	31698	41693	38827	27627
3613	0	29601	38699	26433	25069
3614	0	30458	37105	28729	27229
3615	0	27508	44819	42399	42494
3616	0	27089	28574	28442	38334
3617	0	38835	32477	32352	30194
3618	0	35371	30756	42929	35175
3619	0	38451	40655	42709	37661
3620	0	36937	25331	41693	26961
3621	0	33494	43007	36981	39356
3622	0	39434	37650	35129	44933
3623	0	34996	32571	34747	37516
3624	0	27583	38639	33614	26705
3625	0	37666	33244	41427	31588
3626	0	34786	29828	41312	31590
3627	0	36582	33810	27332	43645
3628	0	30717	33709	28145	29051
3629	0	27950	38862	34989	40365
3630	0	25932	29246	25918	36503
3631	0	37252	36833	40646	29337
3632	0	35672	28096	34976	31656
3633	0	38679	37719	44661	38881
3634	0	31428	44084	33231	31026
3635	0	29485	37093	35408	44752
3636	0	42232	32005	26948	25409
3637	0	25630	39837	36214	33329
3638	0	27323	37402	32562	38622
3639	0	29017	25098	37606	38259
3640	0	34359	32536	38656	41819
3641	0	39854	42194	39780	32262
3642	0	35880	43922	43011	33133
3643	0	32068	34779	27258	43983
3644	0	32990	31546	40467	31232
3645	0	36928	44589	38180	33101
3646	0	44432	27094	40829	40786
3647	0	33819	30826	25449	34142
3648	0	41087	39798	28525	35799
3649	0	26158	44788	39941	41526
3650	0	25294	30973	34341	33704
3651	0	27254	43562	40014	40781
3652	0	31591	30770	25553	27864
3653	0	28991	33822	26608	29965
3654	0	43986	40399	37190	36220
3655	0	28235	32861	43571	34818
3656	0	43243	25212	32190	28475
3657	0	33110	34519	39630	43605
3658	0	41957	38544	28354	44508
3659	0	42370	28887	39549	26851
3660	0	40045	44908	31763	38920
3661	0	25730	37438	28674	36428
3662	0	39826	39635	33070	43739
3663	0	28773	26293	42675	41595
3664	0	42729	34896	35543	34877
3665	0	30545	32708	36971	38862
3666	0	26815	34165	29761	35813
3667	0	37268	26771	41256	33061
3668	0	43485	25150	38530	36139
3669	0	40297	34182	30890	26091
3670	0	34444	41509	34435	44651
3671	0	28366	39117	40965	32604
3672	0	38774	25468	36154	31025
3673	0	35031	25240	31341	35643
3674	0	36706	44346	33066	25870
3675	0	42340	25866	34921	32450
3676	0	30826	43810	35233	40491
3677	0	43705	30240	33097	25159
3678	0	36731	27389	33116	40406
3679	0	27198	41604	25270	41560
3680	0	30842	44545	25955	44007
3681	0	25580	42887	26782	37038
3682	0	27831	38776	26849	25611
3683	0	43228	42426	28707	40421
3684	0	29927	27469	34112	26719
3685	0	43116	30492	37520	32215
3686	0	31318	33445	33224	42616
3687	0	41540	43741	25341	37673
3688	0	33845	35106	26962	34468
3689	0	27210	28828	35454	38042
3690	0	41585	27090	44823	34929
3691	0	43387	35407	41635	38386
3692	0	44079	44492	26577	37203
3693	0	26963	30209	29919	27981
3694	0	33832	43132	27881	30995
3695	0	36518	34620	29677	36859
3696	0	39226	39825	32874	43307
3697	0	30372	32789	32524	40451
3698	0	41445	28203	27434	40965
3699	0	42362	32480	26837	25286
3700	0	39723	31555	25616	38928
3701	0	41928	44957	41179	28845
3702	0	39634	41418	39232	41456
3703	0	38489	26051	42267	39188
3704	0	26897	39174	29035	44926
3705	0	34776	31004	38035	36861
3706	0	30306	25029	30274	35156
3707	0	25563	28573	34898	41533
3708	0	26466	33154	37373	38348
3709	0	38125	35572	33552	28004
3710	0	38318	42455	25513	35269
3711	0	41440	42585	43567	44569
3712	0	39406	34476	42828	35779
3713	0	39156	25750	36046	38540
3714	0	41449	39740	25628	42289
3715	0	40348	27347	31162	43032
3716	0	37953	31117	30783	26857
3717	0	27498	25820	28248	40847
3718	0	32298	31044	44974	26088
3719	0	39799	34454	29485	34279
3720	0	27998	38155	38831	36013
3721	0	44613	34602	44618	32691
3722	0	35307	43152	33434	40694
3723	0	34913	26668	40789	27261
3724	0	33594	27995	35970	28360
3725	0	27439	29306	42015	35802
3726	0	43884	35428	25991	39484
3727	0	27403	37324	27959	38729
3728	0	39089	35177	39984	27630
3729	0	39011	36640	41172	37838
3730	0	42653	35846	28030	33997
3731	0	34310	30336	37669	40877
3732	0	25234	27369	41385	35720
3733	0	31818	35829	31634	33044
3734	0	25343	35803	41322	38605
3735	0	40248	25759	37471	42175
3736	0	41455	38667	44626	37806
3737	0	27941	30349	35972	41656
3738	0	35153	35987	28308	37696
3739	0	32342	28488	38691	36210
3740	0	37740	35889	32710	37278
3741	0	25982	29828	36447	26589
3742	0	27368	33786	36486	29593
3743	0	25300	41964	38162	38140
3744	0	41374	38845	33219	42679
3745	0	44809	43846	31884	33860
3746	0	43648	29416	38871	35945
3747	0	25983	25813	34591	41980
3748	0	43823	31236	33368	42115
3749	0	43027	30362	27265	26080
3750	0	26600	32338	37206	27861
3751	0	25326	36798	44128	39049
