# OpenSignals Text File Format. Version 1					
"# {""00:07:80:65:E0:2A"": {""position"": 0, ""device"": ""biosignalsplux"", ""device name"": ""00:07:80:65:E0:2A"", ""device connection"": ""BTH00:07:80:65:E0:2A"", ""sampling rate"": 1000, ""resolution"": [16, 16, 16, 16], ""firmware version"": 775, ""comments"": """", ""keywords"": """", ""mode"": 2, ""sync interval"": 2, ""date"": ""2022-2-10"", ""time"": ""17:19:13.655"", ""channels"": [1, 2, 3, 4], ""sensor"": [""EMG"", ""EMG"", ""EDA"", ""ECG""], ""label"": [""CH1"", ""CH2"", ""CH3"", ""CH4""], ""column"": [""nSeq"", ""DI"", ""CH1"", ""CH2"", ""CH3"", ""CH4""], ""special"": [{""SpO2"": [80, 40, 5, 4, 3, 3]}, {""SpO2"": [80, 40, 5, 4, 3, 3]}, {""SpO2"": [80, 40, 5, 4, 3, 3]}, {""SpO2"": [80, 40, 5, 4, 3, 3]}, {""SpO2"": [80, 40, 5, 4, 3, 3]}, {""SpO2"": [80, 40, 5, 4, 3, 3]}, {""SpO2"": [80, 40, 5, 4, 3, 3]}, {""SpO2"": [80, 40, 5, 4, 3, 3]}], ""digital IO"": [0, 1], ""sleeve color"": [""dark_blue"", ""red"", ""yellow"", ""red""], ""convertedValues"": 0}}"					
# EndOfHeader					
1	1	35233	33513	40959	33739
2	1	42276	25174	37708	29044
3	1	34743	43319	31649	36450
4	1	42488	25923	27447	35329
5	1	32998	39090	36177	33480
6	1	42658	40717	41248	33002
7	1	35650	28130	29842	38881
8	1	40098	41513	36390	32133
9	1	43017	40967	37349	34418
10	1	36198	38476	35460	33612
11	1	33591	28939	35028	26469
12	0	33952	38032	34899	39433
13	0	33534	31741	28097	43651
14	0	30070	35158	35958	38570
15	0	35316	43534	38801	34495
16	0	42714	39196	41169	27750
17	0	40453	37481	28615	28968
18	0	34055	34735	35988	29334
19	0	40013	43370	26802	29984
20	0	26091	39662	28080	26802
21	0	40890	28228	25877	34756
22	0	38690	28033	38259	38651
23	0	42628	28173	29112	26270
24	0	38503	43313	39834	25003
25	0	27329	28163	41700	42370
26	0	43218	26750	37419	32642
27	0	38008	37276	32671	33693
28	0	42739	30200	30512	41042
29	0	28844	37260	31317	37471
30	0	30731	43580	34584	36740
31	0	41466	40946	25812	35746
32	0	32598	32851	35205	39385
33	0	26526	41663	28600	43548
34	0	28243	32022	26076	35485
35	0	43931	30277	25979	30658
36	0	38204	28125	42767	29835
37	0	32999	38849	26823	36401
38	0	30817	41046	34625	29100
39	0	41201	38220	35394	43869
40	0	44561	25211	34026	26285
41	0	35127	33677	35978	34082
42	0	31258	41809	31328	32450
43	0	43584	28120	32945	44396
44	0	33068	28649	41970	30963
45	0	26787	27594	43625	25162
46	0	38506	37461	41973	30243
47	0	29205	29545	33730	33257
48	0	42416	44275	35214	44483
49	0	29229	44619	28669	42578
50	0	26250	39391	27282	31127
51	0	29327	42997	31127	31078
52	0	32760	44775	43672	35326
53	0	29036	35425	34330	37427
54	0	26558	42427	42553	32304
55	0	36750	43834	35073	40003
56	0	30595	42945	42314	33037
57	0	30615	30263	44813	41877
58	0	29694	39035	38528	27307
59	0	40819	30389	28086	35431
60	0	27271	26308	33186	44462
61	0	37846	28877	35315	28452
62	0	34361	26189	40587	42582
63	0	31555	40785	36816	28270
64	0	34512	33226	32434	36071
65	0	38729	32486	33746	33329
66	0	42078	38062	25652	31775
67	0	30026	35431	33537	25057
68	0	37689	43977	34224	36516
69	0	28787	36483	37124	28965
70	0	40558	35952	43375	38100
71	0	44730	42367	41078	44225
72	0	35309	25718	29112	26666
73	0	26153	26544	28712	41572
74	0	38006	43812	26597	37158
75	0	36935	40297	33267	31511
76	0	43238	26656	43120	25172
77	0	30328	39532	44952	25450
78	0	30146	30648	37476	26653
79	0	36872	33306	29091	28018
80	0	44506	36391	30071	40084
81	0	39093	33145	28457	30930
82	0	31090	25379	34135	43293
83	0	35938	42338	38223	44358
84	0	32959	44306	30919	43996
85	0	39623	29012	42252	29095
86	0	42122	25521	32552	30406
87	0	27140	26328	25195	25128
88	0	32343	44557	32866	28229
89	0	42253	34553	30482	40196
90	0	44546	36593	43562	33770
91	0	30585	35735	28759	31801
92	0	27327	40867	44250	29189
93	0	31028	27032	40164	26552
94	0	35365	42557	28210	41965
95	0	41943	34138	28407	42952
96	0	25315	28178	25102	27185
97	0	42624	39277	34494	35519
98	0	39113	28303	38369	32063
99	0	29413	33309	31303	33471
100	0	40466	36470	36795	36065
101	0	38523	32244	41196	26186
102	0	32444	32631	35992	35893
103	0	41346	31842	31914	43784
104	0	34910	42714	40956	44795
105	0	31332	25673	38969	31244
106	0	32640	31412	28482	42802
107	0	28505	36094	26341	31133
108	0	25702	26683	44927	29505
109	0	31947	27539	36691	29004
110	0	37921	39354	43807	33179
111	0	37188	25152	26876	40427
112	0	44501	32674	27834	33572
113	0	42867	41570	42376	39876
114	0	25522	42035	30462	31127
115	0	28838	28593	44684	32005
116	0	25609	27920	36937	38029
117	0	34014	36392	44673	44287
118	0	35058	27282	25257	38190
119	0	26541	38961	44972	41710
120	0	25903	27610	43433	28898
121	0	41632	36053	30466	32338
122	0	43529	39804	30706	36586
123	0	36942	27667	27422	26473
124	0	40507	29021	39966	38755
125	0	32042	39199	37975	33059
126	0	27378	40393	29984	41954
127	0	38339	26606	31671	42594
128	0	28766	32839	37691	25139
129	0	25845	36927	38661	26983
130	0	39483	25303	33728	26585
131	0	43904	32121	39201	34690
132	0	36894	34352	42499	40432
133	0	35361	34391	41655	26225
134	0	36216	44547	43428	35047
135	0	36938	28041	27192	43324
136	0	41369	28709	43458	29099
137	0	38973	43232	39818	29191
138	0	40602	28393	34803	38988
139	0	34731	33206	44119	28794
140	0	41333	41714	27662	30016
141	0	39954	32623	28085	41255
142	0	28106	37223	31503	34654
143	0	37783	41556	25843	42392
144	0	33824	37619	38240	44036
145	0	39509	42655	35158	30160
146	0	44184	44823	36046	26299
147	0	29854	41901	27777	34265
148	0	26109	32972	25987	33880
149	0	30458	44606	36800	34683
150	0	34090	39862	38104	39393
151	0	25852	30377	27173	36125
152	0	40396	30601	42640	38042
153	0	34110	42541	40260	27153
154	0	39563	36945	33230	32342
155	0	41365	39892	43539	42949
156	0	38382	39191	29764	32613
157	0	44529	35710	36631	44955
158	0	44227	37296	40411	29520
159	0	34472	38209	29459	43176
160	0	44064	28794	31953	41690
161	0	27323	44104	34978	35580
162	0	41902	32538	28448	37560
163	0	25011	34138	42531	41783
164	0	33091	32798	40289	41466
165	0	40594	26388	38159	26561
166	0	36547	26635	32862	41617
167	0	42316	38629	31808	34047
168	0	37805	33332	43019	29391
169	0	43097	35279	25518	43655
170	0	44109	27112	38781	33581
171	0	41577	41059	42724	26121
172	0	38987	30166	40411	44600
173	0	39472	44220	43516	36043
174	0	34996	41474	41932	30110
175	0	37654	29280	38734	25199
176	0	32296	40787	39186	35956
177	0	44938	26331	34336	28624
178	0	30454	30749	27268	27289
179	0	35541	37658	30677	40891
180	0	39934	44487	29722	35438
181	0	42371	38789	31174	33431
182	0	42655	35888	41465	42422
183	0	33384	44880	25701	42448
184	0	39712	34365	40489	37460
185	0	30514	25805	29214	31306
186	0	25641	44799	28157	36942
187	0	27583	27730	26037	30549
188	0	29811	38163	28977	40437
189	0	38654	41632	25701	42224
190	0	43571	42802	44917	40332
191	0	36495	40678	37484	42955
192	0	40631	42020	44738	33883
193	0	43750	42078	36347	39810
194	0	42878	28840	32459	38986
195	0	31084	44446	40770	33302
196	0	40584	36853	30130	34235
197	0	26868	35038	27666	43153
198	0	33554	36987	35287	35065
199	0	25544	31565	26336	42341
200	0	26497	35817	25886	44966
201	0	28803	35409	27669	28651
202	0	29751	32062	29035	38296
203	0	37033	33646	37869	28892
204	0	28909	35364	36251	35552
205	0	43653	43430	43426	37584
206	0	25213	36074	36526	38092
207	0	25834	40748	27831	34612
208	0	34876	33777	41210	28278
209	0	41289	25714	40189	28131
210	0	34858	43294	25631	40094
211	0	41009	34053	29449	31994
212	0	26588	37097	44161	31446
213	0	28162	44228	41885	36138
214	0	34858	35462	29955	38968
215	0	40100	33361	32472	44871
216	0	43951	44941	37676	36265
217	0	44593	41586	34775	43806
218	0	39985	33167	39307	41941
219	0	29747	28724	39027	38160
220	0	38774	26487	36147	34416
221	0	32252	44701	43414	40358
222	0	25337	27904	28091	35859
223	0	39412	30162	32546	43571
224	0	28666	35207	43531	43404
225	0	25082	28011	37519	28479
226	0	26640	43686	44001	40192
227	0	39642	35046	25242	36413
228	0	25541	35079	40644	37059
229	0	27921	43828	26720	28190
230	0	44874	37914	43320	44104
231	0	30341	35244	28772	28532
232	0	34807	33675	30462	40786
233	0	30975	38052	43374	41925
234	0	39020	35133	38801	43531
235	0	43123	31617	41071	44903
236	0	30107	34484	36032	39415
237	0	38470	25561	44834	28157
238	0	41504	43145	43450	34034
239	0	36213	25074	31062	27140
240	0	43820	31102	31475	39634
241	0	35070	26727	42760	44509
242	0	42895	37103	31231	26675
243	0	38909	37350	32304	41316
244	0	41293	25510	44694	44874
245	0	35056	26090	39612	28205
246	0	34620	41065	30172	40131
247	0	26689	35083	26395	27849
248	0	35447	41134	26291	44088
249	0	38401	32372	38628	31215
250	0	43822	28409	39553	42153
251	0	36644	30100	37188	42718
252	0	30687	42839	30702	38278
253	0	40652	35159	37890	36989
254	0	40521	43194	38965	38933
255	0	32845	35310	31303	41294
256	0	36174	28757	34879	27823
257	0	28270	33925	29066	31683
258	0	26892	34738	42566	28365
259	0	34105	29132	40375	31019
260	0	37206	25549	36427	43885
261	0	40043	34063	43020	36092
262	0	43705	33643	29655	35231
263	0	33958	28679	43021	25126
264	0	26842	31402	38347	42156
265	0	30977	25980	42564	29375
266	0	44144	33236	26508	42278
267	0	40067	34335	36718	43842
268	0	44808	39073	42981	44426
269	0	27467	30758	34747	27439
270	0	28312	42483	42856	35592
271	0	28861	40207	25512	34459
272	0	26555	37577	26115	31302
273	0	37326	40395	32614	40959
274	0	32387	34686	38693	44009
275	0	29099	37415	39816	32303
276	0	44025	30357	26403	34497
277	0	35352	32289	43606	35343
278	0	34454	43350	28734	26522
279	0	34453	40011	29605	32053
280	0	28314	36886	25110	40486
281	0	39931	31082	38910	37989
282	0	27584	37017	36679	30341
283	0	29633	40093	25429	36824
284	0	27758	37984	36982	28145
285	0	40511	44654	39735	43532
286	0	38798	39934	35187	30168
287	0	32884	42965	44549	29344
288	0	39518	42158	40233	44796
289	0	41206	39124	27798	28499
290	0	26562	33410	29750	26889
291	0	25882	25704	35575	35305
292	0	35538	34906	42894	44511
293	0	30269	40049	26225	42133
294	0	38782	27963	28347	38655
295	0	37162	33817	28150	27038
296	0	29432	29328	32679	38205
297	0	33035	36092	31506	36472
298	0	39817	42006	35400	40602
299	0	36924	27848	29816	30595
300	0	34420	29497	39968	25257
301	0	26171	43473	37495	43844
302	0	26438	29795	27659	27998
303	0	36637	28790	28698	30783
304	0	38439	28881	41163	27595
305	0	26497	35038	37877	30424
306	0	28220	33800	43408	42173
307	0	26862	27375	43863	27674
308	0	40151	42157	26983	26596
309	0	25157	39325	31079	27136
310	0	29589	43933	36385	39410
311	0	36291	37335	26690	32053
312	0	31607	40673	42624	28036
313	0	26630	36280	43721	43237
314	0	32930	25964	42603	36237
315	0	38023	41849	36781	27543
316	0	37834	29543	30314	42140
317	0	26102	29293	32825	40239
318	0	35307	39805	33734	28195
319	0	44399	33553	42313	37325
320	0	42009	44612	29512	43745
321	0	39769	37891	43678	29790
322	0	33739	38090	42532	35419
323	0	41282	35424	36821	26181
324	0	36409	43960	29501	37077
325	0	44145	30641	29905	33385
326	0	43790	38683	26899	29877
327	0	34472	33629	31268	26303
328	0	37879	35972	27215	25825
329	0	35226	25274	38938	34227
330	0	40921	34934	42612	28114
331	0	37877	42020	27846	40145
332	0	40503	34558	35029	42587
333	0	27193	35840	31226	44726
334	0	26444	35701	39525	28298
335	0	38291	33713	44770	29711
336	0	28845	28376	39749	28054
337	0	31950	40077	31635	27967
338	0	34318	30007	40719	36197
339	0	25800	36644	29625	32180
340	0	32469	37932	30975	28466
341	0	34226	29495	32198	35616
342	0	42094	38891	43889	40912
343	0	36891	32547	37709	38557
344	0	39068	38742	34086	33815
345	0	39948	35359	29360	37754
346	0	29397	44388	39409	43077
347	0	27922	38397	32787	29374
348	0	25383	43374	40193	43890
349	0	41246	25746	25628	41355
350	0	43403	30886	35857	39848
351	0	31865	27292	37398	29252
352	0	33843	37466	26388	42058
353	0	42384	28803	44107	29269
354	0	38204	42697	34584	44110
355	0	42930	35633	32552	28135
356	0	39975	35927	39787	29395
357	0	43732	40283	43105	44252
358	0	35197	41371	36186	37189
359	0	41886	41053	34225	37063
360	0	34027	27222	41816	44405
361	0	39489	41294	29409	37735
362	0	32407	35180	35245	34527
363	0	33373	42020	31524	42839
364	0	34028	33970	41404	36602
365	0	39748	32138	33164	28044
366	0	32916	34675	26662	32557
367	0	28502	33859	41830	36598
368	0	36055	38019	37899	29618
369	0	29993	40513	41493	42464
370	0	35835	30616	27230	29897
371	0	27615	32367	39214	36931
372	0	30292	44161	28935	43381
373	0	26799	32835	44481	29090
374	0	31365	29626	40818	40160
375	0	25690	25609	44966	40871
376	0	36779	41354	25822	43601
377	0	32159	35479	30680	30440
378	0	36491	25900	27063	44037
379	0	35481	44085	37370	40927
380	0	28956	27026	43355	35210
381	0	28093	28854	39792	42834
382	0	35339	43788	26866	28095
383	0	42611	27613	31897	26803
384	0	41720	30862	39712	32263
385	0	34497	28501	36716	43004
386	0	34733	26336	42690	34892
387	0	32964	25381	27211	32960
388	0	42405	35038	39084	38831
389	0	32080	36344	29914	42666
390	0	36656	28070	38622	27417
391	0	34576	31347	44806	29959
392	0	40567	44723	28342	36239
393	0	25464	37162	28811	37496
394	0	29878	43746	31278	35524
395	0	41257	41767	38212	39838
396	0	39891	44752	32905	43348
397	0	39834	27565	42299	32596
398	0	42968	44050	29178	41754
399	0	36020	39571	42855	27418
400	0	43978	32385	32359	26089
401	0	28268	42667	29467	34435
402	0	26658	34744	35957	39790
403	0	37811	37875	35615	35215
404	0	31254	39251	39495	33799
405	0	27728	32236	42518	31723
406	0	33878	44743	38737	41458
407	0	32750	33593	38273	35309
408	0	27977	37085	26709	34141
409	0	28474	27973	28935	38248
410	0	37782	37659	33797	33755
411	0	32318	26688	41875	37391
412	0	36127	27946	34722	39725
413	0	30544	31375	31687	31244
414	0	43389	39789	41600	41670
415	0	43127	25353	33598	40369
416	0	32348	30509	37255	28689
417	0	44012	39482	42310	37519
418	0	28638	29734	41696	26233
419	0	38273	33746	40721	30140
420	0	42389	31286	41376	39273
421	0	38011	39603	42247	34474
422	0	27364	32782	33732	32355
423	0	43768	32441	30117	39408
424	0	28779	43958	28092	34026
425	0	40204	41877	42113	40578
426	0	37124	41952	32372	28875
427	0	44090	31944	44190	32335
428	0	25804	42800	29106	31907
429	0	35208	27283	27970	28213
430	0	33455	27550	30538	34028
431	0	41753	25749	42159	43321
432	0	29948	27453	33167	32595
433	0	39837	32391	34804	35549
434	0	41934	31372	28621	29925
435	0	26627	25490	39590	34928
436	0	26044	36119	44933	30460
437	0	37079	34061	43207	27966
438	0	29490	33247	40337	42900
439	0	34323	44339	44596	39231
440	0	29336	33276	34436	30120
441	0	44730	25702	44195	43077
442	0	33394	43780	29529	43199
443	0	28889	39561	38674	43808
444	0	25915	42749	44007	29988
445	0	40630	34766	31997	31090
446	0	42802	26442	41743	32856
447	0	42291	43954	31969	28641
448	0	33267	44191	31237	26048
449	0	37583	33169	40728	32475
450	0	34380	43400	39309	35919
451	0	42804	40021	34286	34531
452	0	37365	40435	41665	32814
453	0	35037	34333	31199	28180
454	0	25299	25098	31154	32274
455	0	34862	28367	44946	39392
456	0	41878	32634	31268	25738
457	0	41949	34914	39689	29486
458	0	29007	31241	31618	36803
459	0	42253	33018	38810	33416
460	0	38362	42658	27235	30500
461	0	31860	30190	40294	28700
462	0	33621	36776	42743	27644
463	0	37051	43751	37211	29512
464	0	29351	39003	39095	38889
465	0	33734	27570	29049	27912
466	0	30478	36629	44624	25706
467	0	31188	27052	40864	39497
468	0	26165	34371	35005	25603
469	0	38951	27098	25038	35381
470	0	33863	25839	39348	42567
471	0	25881	37471	27371	41621
472	0	35193	25300	42539	37360
473	0	37646	43535	28051	27402
474	0	42465	38326	34618	34899
475	0	39307	33241	42308	37426
476	0	30914	42838	38899	25514
477	0	36719	37852	41276	31521
478	0	31059	44734	34233	41744
479	0	36572	31624	36517	32440
480	0	37305	34488	25675	36070
481	0	37351	35081	36980	44857
482	0	38738	43832	35491	38467
483	0	25446	25234	30887	35541
484	0	32118	33197	32715	35607
485	0	44868	40029	27043	29537
486	0	36617	36235	27281	35175
487	0	37885	31578	42872	38281
488	0	26429	28950	41007	36783
489	0	39207	32452	26269	25268
490	0	44654	43339	39115	34601
491	0	39800	38689	41123	27159
492	0	28112	30374	38551	40772
493	0	39282	31735	44808	30902
494	0	38676	31561	37264	43164
495	0	33139	40332	39354	30824
496	0	44227	33030	26072	32042
497	0	33659	33062	25063	32431
498	0	27570	34504	41185	34445
499	0	32383	35983	32398	42499
500	0	30269	34394	44621	42553
501	0	38329	26200	27638	30379
502	0	32628	39847	34734	37466
503	0	31778	34855	26487	37266
504	0	35923	35317	28777	26070
505	0	38187	39432	35640	30285
506	0	36732	25408	40353	34205
507	0	36076	43037	44943	42692
508	0	28196	32259	42851	26374
509	0	44420	27940	43716	44418
510	0	42559	35306	31156	31746
511	0	37483	30985	27333	39842
512	0	29028	32547	27176	34524
513	0	31315	27498	36147	38789
514	0	37301	34885	43861	29932
515	0	25654	25775	32968	35739
516	0	26767	42177	37397	40594
517	0	43297	29030	34068	34861
518	0	38632	27080	43722	31205
519	0	36841	37594	36165	29958
520	0	37297	38720	44703	30765
521	0	38150	34008	33024	32267
522	0	41818	28994	36982	36974
523	0	33238	41713	25460	42615
524	0	35666	31449	27463	40349
525	0	38446	28183	33279	38255
526	0	41846	42012	40165	25365
527	0	36352	37701	31184	38549
528	0	29206	29672	28422	33611
529	0	26660	44351	41037	38891
530	0	41882	39593	36357	41636
531	0	33406	38802	36995	33163
532	0	26558	32770	29867	39110
533	0	26199	31581	28331	30198
534	0	29718	37244	34566	33392
535	0	38956	36230	42060	30047
536	0	41693	40414	36625	37039
537	0	26453	43958	34247	40273
538	0	31868	43254	28698	42184
539	0	34236	31366	27351	34280
540	0	43504	43138	34373	35662
541	0	40047	25290	31540	28904
542	0	43393	44544	38443	25827
543	0	39367	29732	39903	42865
544	0	30601	37392	29058	33016
545	0	42454	37281	40936	32762
546	0	44094	39642	29502	38875
547	0	35252	29436	36607	42008
548	0	30223	34612	41401	37964
549	0	39679	43023	33840	41643
550	0	34792	30796	25997	28359
551	0	39470	28335	29480	32068
552	0	27962	35052	27680	31140
553	0	39268	35259	28706	29672
554	0	28461	36467	43134	37365
555	0	28542	31491	37800	32703
556	0	37339	31219	36798	35472
557	0	41229	43306	44617	44768
558	0	34228	28774	43644	37252
559	0	37822	39090	32048	40837
560	0	43414	27145	43587	40742
561	0	41218	26853	35533	32178
562	0	35496	33627	34568	44696
563	0	37763	31538	39188	32742
564	0	26772	36140	34636	38410
565	0	37357	44250	37537	44666
566	0	39522	25020	27963	41914
567	0	30710	30085	42492	43242
568	0	35800	43265	41555	27760
569	0	34853	28704	38135	29870
570	0	40865	42381	32546	43077
571	0	43374	35954	42115	42659
572	0	36643	38567	30131	35704
573	0	28400	27119	31305	34600
574	0	26020	41450	40537	35484
575	0	28379	34310	33605	25030
576	0	43204	31303	40227	27438
577	0	27060	27892	35297	34791
578	0	44188	38132	38551	42582
579	0	39476	33352	31086	39832
580	0	25534	35601	33578	33644
581	0	42616	44160	39828	30154
582	0	26902	43173	39184	40382
583	0	43445	36517	43543	30615
584	0	29956	32777	32031	27939
585	0	28449	26991	28115	44296
586	0	29582	38410	34502	41117
587	0	34036	40693	28086	41369
588	0	34383	37485	37276	40297
589	0	29456	32478	27832	31557
590	0	38193	42528	43535	39856
591	0	35502	40449	27338	32218
592	0	34053	30804	36179	28766
593	0	37263	27497	41635	41931
594	0	36086	41940	26618	39693
595	0	25768	33710	43860	26118
596	0	30952	27010	25338	38366
597	0	25013	32141	30877	32115
598	0	33679	37462	39132	36699
599	0	36774	37831	32217	28847
600	0	34666	43942	32353	37557
601	0	33098	35697	41284	41050
602	0	39735	25491	27790	40136
603	0	31820	25310	31082	41008
604	0	36905	33595	37448	42394
605	0	40306	43044	29347	31975
606	0	34045	36000	40224	28236
607	0	32923	37968	40997	25022
608	0	29761	34945	28015	36528
609	0	39033	27915	40972	41313
610	0	30767	36961	30504	31083
611	0	39882	27587	43150	29460
612	0	25491	25582	31438	39653
613	0	33164	36675	26843	29939
614	0	30290	34932	40492	29034
615	0	30117	43081	30818	39199
616	0	25078	43325	40592	35534
617	0	41897	37495	33247	34851
618	0	26733	29624	26675	26519
619	0	33624	31586	34690	37521
620	0	42940	26344	31827	34694
621	0	41728	38394	41457	34245
622	0	30735	37172	32167	26117
623	0	33202	37704	43294	27985
624	0	29156	34711	39781	26682
625	0	32458	29248	37330	31260
626	0	35769	41879	32930	27708
627	0	39074	44841	41280	41504
628	0	25679	27860	38158	31277
629	0	27611	30099	44441	41704
630	0	30358	33438	25920	25435
631	0	29931	37551	35685	35594
632	0	26777	28023	44005	42184
633	0	30654	26082	44193	43451
634	0	30457	35823	41993	25859
635	0	42893	38911	40504	29782
636	0	36331	32247	33552	27769
637	0	43145	33210	41284	40952
638	0	39585	43724	38908	30161
639	0	36641	26769	37300	34112
640	0	42961	41229	25615	32653
641	0	31931	36596	26920	32702
642	0	29355	40385	43062	40492
643	0	28746	31958	44662	44384
644	0	35260	27522	29549	37228
645	0	37847	37614	41377	37684
646	0	25061	36303	38635	36206
647	0	30564	31725	39440	39550
648	0	28056	35508	32550	29210
649	0	36633	36206	36903	38040
650	0	27453	34835	36098	36547
651	0	36881	35558	37861	30776
652	0	28323	25333	30585	40062
653	0	38677	25027	30899	26783
654	0	31039	42940	31849	30688
655	0	39092	41919	29117	38353
656	0	42195	31313	41660	44389
657	0	26940	34199	39359	44309
658	0	25297	37877	35361	31782
659	0	37820	41344	33334	36965
660	0	25872	43274	43501	32547
661	0	42775	35830	34070	27012
662	0	28974	42285	28439	37741
663	0	35754	39216	37962	30779
664	0	26083	40967	40258	43184
665	0	44948	38332	39807	43718
666	0	27686	33500	40003	37870
667	0	40559	29124	44750	30488
668	0	37590	40262	36835	34187
669	0	37879	26071	41600	28873
670	0	43115	33400	34275	25555
671	0	39324	31868	31533	43441
672	0	38225	28065	25042	29519
673	0	42595	29148	44294	39165
674	0	31634	40429	43018	33215
675	0	40354	29542	34898	40567
676	0	38883	43803	29997	36272
677	0	30470	31595	44055	27637
678	0	34930	33811	32392	41582
679	0	27006	39749	30634	25036
680	0	29758	25270	27347	30623
681	0	32244	41433	43966	44075
682	0	37254	29736	28575	39150
683	0	42756	32038	35482	38721
684	0	32834	40610	32360	35424
685	0	40457	36938	39985	43404
686	0	34462	33657	36892	26714
687	0	44184	38793	41428	42691
688	0	40358	28273	29630	29093
689	0	40896	26292	25156	38344
690	0	31419	25663	29270	27884
691	0	40537	31625	31270	25169
692	0	40818	32927	39447	27499
693	0	33298	42265	26608	28799
694	0	30195	37931	32617	37221
695	0	28518	44773	41824	34194
696	0	39234	43716	33240	43713
697	0	31317	32539	27467	40939
698	0	37510	44268	39717	42849
699	0	31179	33216	32955	32586
700	0	38773	28987	31746	36393
701	0	30607	25130	42845	35568
702	0	34063	43763	38189	36410
703	0	29998	37101	27732	32244
704	0	25018	39987	37668	43144
705	0	32642	27054	25405	39930
706	0	32849	28578	39201	40893
707	0	40633	38994	36413	42949
708	0	39191	29596	33863	36805
709	0	27073	38293	35093	26168
710	0	42570	39238	44103	37836
711	0	42303	40104	31334	28789
712	0	34763	43548	37485	44687
713	0	29909	40156	36287	34539
714	0	37558	43170	38264	40104
715	0	25638	35454	37012	37853
716	0	41000	41150	35880	29979
717	0	31368	41624	36151	40092
718	0	42708	38987	37005	33646
719	0	25495	37162	28572	44749
720	0	34058	39608	41148	36171
721	0	41494	26497	27048	33368
722	0	25124	28195	40574	38542
723	0	37793	40467	25627	36258
724	0	34354	29089	34629	33813
725	0	44674	41142	42572	25949
726	0	39507	28454	44856	29009
727	0	44533	33536	33015	37961
728	0	44325	32749	40950	28214
729	0	25333	27600	26294	36042
730	0	40408	39122	26050	43898
731	0	26692	26327	36224	29871
732	0	34888	36268	33274	38332
733	0	39753	31771	40855	35459
734	0	26418	37418	26004	26555
735	0	34405	40051	43671	25482
736	0	37608	34926	33105	28776
737	0	39249	33649	33971	43613
738	0	39647	43682	33817	31385
739	0	31617	37708	34458	39934
740	0	38247	39804	44452	36251
741	0	34524	31715	27586	32069
742	0	39173	26845	36573	38220
743	0	40109	27131	32441	26469
744	0	25983	40211	27092	26405
745	0	43945	44847	31024	29598
746	0	43830	32462	27501	42888
747	0	31403	42660	42398	31049
748	0	30493	37725	44338	36405
749	0	42501	41986	43649	28305
750	0	25950	35699	33957	40349
751	0	26240	26564	40320	43092
752	0	35122	31017	33090	36629
753	0	38168	27466	28254	32083
754	0	27630	30898	39641	36823
755	0	33628	40378	25311	28439
756	0	32762	36022	33526	29927
757	0	38193	43184	36569	27944
758	0	44679	30320	30249	37706
759	0	44622	29104	41316	40464
760	0	28165	31051	25455	40819
761	0	41915	32855	32951	26687
762	0	39457	36552	35881	43750
763	0	30786	31678	42558	32344
764	0	32130	31981	38219	32583
765	0	27145	28414	25174	41905
766	0	27730	28692	35236	37611
767	0	37936	31058	39390	40740
768	0	41345	37815	37992	36710
769	0	42748	43694	28159	27444
770	0	27839	43099	28454	41099
771	0	39563	44887	40610	31764
772	0	30019	40126	29444	44641
773	0	34310	33200	37045	38881
774	0	28399	25096	43247	38422
775	0	32493	32538	32698	35448
776	0	26525	30202	30254	30247
777	0	32842	29510	32037	42320
778	0	33455	43165	39048	31889
779	0	39198	27926	40118	26339
780	0	25185	28061	39558	28293
781	0	25082	30782	38317	44582
782	0	25020	28291	43589	34435
783	0	37694	43518	43051	34443
784	0	31433	35950	30429	40151
785	0	42572	43447	29356	25308
786	0	30747	44241	36324	43340
787	0	25959	43653	29758	40388
788	0	28287	27728	38007	27190
789	0	38768	37139	25411	29102
790	0	41495	27231	28973	33039
791	0	44403	31991	42192	41461
792	0	39492	41918	37174	38487
793	0	36936	44077	28124	31872
794	0	40331	41730	31896	41325
795	0	26052	26077	29014	44909
796	0	35179	34950	40720	30434
797	0	39402	42386	36230	37245
798	0	44829	43148	28571	42214
799	0	41589	30234	42466	30495
800	0	40227	43756	30536	36928
801	0	35429	37141	34595	29814
802	0	33773	42489	43421	38074
803	0	39400	40075	33425	37103
804	0	31489	38984	36353	27042
805	0	44848	26618	30716	28287
806	0	41694	37199	41516	44876
807	0	35118	44167	25645	43849
808	0	39714	37880	30262	39657
809	0	43807	40084	37641	33133
810	0	39820	37539	35599	32608
811	0	42594	32764	40460	34743
812	0	32888	43913	35293	40757
813	0	41209	36078	35258	28204
814	0	30846	35011	28308	43730
815	0	29048	26881	30942	42182
816	0	25178	36780	26007	30132
817	0	35993	40087	42508	25323
818	0	33403	37875	27818	40501
819	0	43368	37035	44941	38240
820	0	28793	33720	43824	27607
821	0	35397	30426	29495	44406
822	0	35753	41479	44093	30613
823	0	29898	33978	42570	26954
824	0	26352	39003	25560	25327
825	0	35030	39268	44725	37794
826	0	27366	29746	27915	31378
827	0	35288	41399	39943	26135
828	0	38407	34081	37883	31840
829	0	34047	28739	35391	35883
830	0	29652	35709	26238	40526
831	0	26115	29540	35719	25450
832	0	44809	44963	27408	29223
833	0	29384	32944	28597	43266
834	0	34823	36207	41782	28908
835	0	35798	30122	42944	40266
836	0	43674	26541	32473	29007
837	0	28962	38316	29111	25824
838	0	26442	26481	35960	44571
839	0	37545	30593	26533	25606
840	0	35441	43653	37323	35360
841	0	42277	36532	35620	41422
842	0	43771	35318	39667	33030
843	0	28510	31597	42342	32082
844	0	26508	33586	40813	27712
845	0	38832	25039	38211	39899
846	0	34992	42201	32070	42899
847	0	40022	29642	40712	43844
848	0	28871	26234	26723	27468
849	0	26401	33153	25425	42578
850	0	39686	34536	32473	43403
851	0	31192	29606	30232	33204
852	0	30651	33423	41648	32315
853	0	43827	44333	38298	39659
854	0	42681	39392	34275	31865
855	0	43115	31862	32282	31729
856	0	25936	37875	36219	31304
857	0	27840	29883	42896	42915
858	0	31402	30334	25028	41798
859	0	32754	34834	28372	44158
860	0	35203	39927	43999	35871
861	0	39193	33401	25102	25632
862	0	37171	38636	29985	28605
863	0	40587	38230	25681	25656
864	0	43616	31447	34514	33117
865	0	41009	42506	39077	34147
866	0	36077	28251	31086	30844
867	0	43123	30041	40984	38022
868	0	25274	25761	25948	34427
869	0	38180	39038	33279	43561
870	0	33355	30897	39847	30340
871	0	26989	26135	30958	38839
872	0	27167	33058	43161	25992
873	0	34746	42842	26021	41700
874	0	29180	36291	43151	42871
875	0	29853	28785	40255	26663
876	0	30186	27489	32717	25365
877	0	29908	29589	44480	29285
878	0	25941	25425	41879	42961
879	0	34661	44101	26153	36534
880	0	32093	26017	29194	27488
881	0	25156	28551	38207	40800
882	0	40818	35903	40243	39084
883	0	26117	42402	36834	37387
884	0	32274	38341	34540	25929
885	0	32465	26986	32167	33602
886	0	42014	44794	35241	38029
887	0	26904	37091	43298	30005
888	0	40512	39312	44099	30029
889	0	38656	31785	34320	25455
890	0	41166	39934	32479	28817
891	0	44687	30580	36541	34062
892	0	36369	36167	38686	44529
893	0	30127	33112	41969	33676
894	0	31366	43721	29332	42632
895	0	36433	34873	29280	30525
896	0	35447	26292	36674	37563
897	0	27271	34106	29156	25641
898	0	29790	25777	39524	44045
899	0	31117	42185	28220	35229
900	0	27144	41623	37656	37403
901	0	40400	30658	28620	39911
902	0	35366	30194	31645	30990
903	0	29376	41526	39560	35953
904	0	27631	25660	42264	35119
905	0	31274	29926	35526	30001
906	0	31115	30605	35873	25719
907	0	27531	40530	38751	28533
908	0	32492	37432	43575	27621
909	0	37446	39233	26757	32992
910	0	38596	34445	43765	40584
911	0	40530	32531	25027	36651
912	0	31984	28671	35793	29607
913	0	30299	40996	44892	37048
914	0	37243	38233	44525	29524
915	0	40869	31851	41612	38725
916	0	29977	26359	38336	43296
917	0	27625	29790	31703	30836
918	0	40121	25306	33571	25004
919	0	34043	31825	26359	31336
920	0	26774	39240	36039	26863
921	0	33503	33084	25269	36361
922	0	34809	37869	35480	41610
923	0	35684	32661	29036	34972
924	0	25663	26784	34328	32825
925	0	33744	25998	34193	41035
926	0	39344	25239	31844	41785
927	0	33273	32702	30095	32468
928	0	28753	29351	43897	44764
929	0	43609	26014	42018	40460
930	0	43214	38874	30246	35001
931	0	43690	26559	31793	39705
932	0	29864	29836	29388	27981
933	0	26124	38848	35785	36943
934	0	42602	35900	33648	44992
935	0	33526	25698	44600	42926
936	0	25688	39468	25921	34273
937	0	33713	30282	38395	29013
938	0	35197	38746	34048	41463
939	0	41430	33012	42094	28075
940	0	34295	34400	34758	37167
941	0	28773	44003	32862	33894
942	0	39132	41345	25041	28079
943	0	25786	37073	30823	25098
944	0	43044	26390	37422	28751
945	0	31344	35896	25725	28431
946	0	44471	31233	27721	29317
947	0	34223	34457	37175	26431
948	0	41693	37278	33983	40211
949	0	43424	37376	43953	34391
950	0	26907	34054	30676	40208
951	0	28111	29728	41967	27345
952	0	33235	41213	27631	36533
953	0	44540	44909	34418	44663
954	0	37851	37031	25273	26905
955	0	34021	29791	44982	38801
956	0	37945	27850	31225	35484
957	0	36402	28402	43483	28476
958	0	30401	26917	41644	38017
959	0	27896	25533	30966	32326
960	0	32196	30248	25097	35823
961	0	35093	44234	34940	30940
962	0	39490	42312	25708	30276
963	0	29642	27757	34080	41132
964	0	26614	41296	30562	25873
965	0	28532	43985	29488	31285
966	0	43857	32312	42101	39307
967	0	38730	34943	28138	29735
968	0	36170	39006	35296	29320
969	0	35814	40861	43580	28453
970	0	32042	31581	25746	36038
971	0	38622	32276	30954	43658
972	0	27984	42750	41066	35087
973	0	39217	33883	42619	40844
974	0	42375	37267	25486	31962
975	0	33368	37513	32200	37339
976	0	42588	32548	44717	32222
977	0	36663	33319	30095	27905
978	0	37386	29560	40762	38546
979	0	26655	40547	36053	30031
980	0	39849	30317	26049	25357
981	0	43248	43139	30373	34079
982	0	30182	36753	25356	37485
983	0	36194	25595	43415	37960
984	0	33488	37243	38917	31881
985	0	38568	36889	35015	30991
986	0	29172	40812	36723	43433
987	0	33776	37393	31397	34358
988	0	43493	36422	37285	43478
989	0	37600	34163	40940	37909
990	0	31941	28553	42127	33855
991	0	44489	39400	32279	38842
992	0	43596	25470	34178	39924
993	0	43406	39060	27677	42901
994	0	32183	35332	33221	26264
995	0	40852	27389	39525	33390
996	0	40781	36121	34898	27693
997	0	38411	27783	30607	28352
998	0	25427	28095	34201	35830
999	0	25656	44438	36608	36069
1000	0	37208	40451	25338	34420
1001	0	40307	30049	25475	43308
1002	0	26855	35335	28020	44383
1003	0	43914	32273	32478	42403
1004	0	44190	27352	41089	44902
1005	0	34182	36717	40175	30331
1006	0	34116	35252	34068	42064
1007	0	31305	29582	26589	42137
1008	0	33723	31438	32878	42836
1009	0	37174	25077	31244	42402
1010	0	30724	25231	33081	34077
1011	0	34792	37277	29871	26082
1012	0	30092	42078	25861	40870
1013	0	41051	34291	38460	39651
1014	0	32159	38563	42609	31551
1015	0	42201	28367	44322	27516
1016	0	45000	37723	32843	41514
1017	0	40923	26329	38883	40209
1018	0	32355	40413	32985	44088
1019	0	31873	44007	40519	35195
1020	0	28898	31515	42256	30715
1021	0	36431	30786	34999	40065
1022	0	26193	29375	39455	42048
1023	0	39984	41687	28887	34398
1024	0	43620	41607	37784	42306
1025	0	39856	31127	40373	39528
1026	0	29384	30319	42341	32038
1027	0	26001	33638	44959	35056
1028	0	33914	40013	28030	41808
1029	0	44321	34826	27999	32323
1030	0	26613	40955	31024	44285
1031	0	40401	29974	41400	38889
1032	0	32450	25704	35867	39257
1033	0	36706	35089	27955	38965
1034	0	26520	28454	31869	41867
1035	0	27623	43211	36855	39086
1036	0	38319	32796	36398	33230
1037	0	29342	29574	26741	33331
1038	0	32476	30327	43192	33352
1039	0	31243	36569	44199	33352
1040	0	40451	38780	35542	27745
1041	0	39469	41014	33066	27571
1042	0	38653	27466	28412	37955
1043	0	37724	38381	43964	27603
1044	0	25830	28791	44260	42908
1045	0	31518	33251	25566	31355
1046	0	41515	39818	41947	33158
1047	0	32047	25467	42960	33738
1048	0	31787	36781	26114	25809
1049	0	30526	25669	34758	43624
1050	0	40820	39553	39018	34327
1051	0	26355	41416	34660	39181
1052	0	37274	33732	42180	35757
1053	0	42144	37118	41985	37120
1054	0	37884	26147	29971	25210
1055	0	43284	41887	33516	44264
1056	0	26034	36300	28750	26193
1057	0	35562	29410	27655	29553
1058	0	34361	27930	28318	30525
1059	0	36029	26762	34929	38879
1060	0	33834	41916	41310	38168
1061	0	28748	37342	29584	37034
1062	0	33895	35721	31066	25404
1063	0	43539	36496	26332	41373
1064	0	30512	34160	35854	39020
1065	0	25918	33644	27292	39149
1066	0	27031	37164	31121	33555
1067	0	32147	29657	33680	27043
1068	0	44814	42568	29169	43033
1069	0	34626	29731	34527	42180
1070	0	38443	43721	44716	36615
1071	0	44165	40101	44578	33427
1072	0	28140	39408	29463	37877
1073	0	31847	30138	30693	42672
1074	0	40466	43453	40038	33446
1075	0	35032	43820	35763	38638
1076	0	37062	29480	27709	33134
1077	0	31860	32101	42985	34224
1078	0	35230	35524	38942	37304
1079	0	42970	38637	37199	37538
1080	0	35268	30631	29440	35743
1081	0	38159	38601	44624	27649
1082	0	36787	28677	32499	43069
1083	0	27548	26561	42625	42072
1084	0	44645	41712	33719	43886
1085	0	29308	38760	30858	33198
1086	0	31124	30444	33101	43229
1087	0	39160	36331	31856	33868
1088	0	34376	36813	41880	27719
1089	0	42467	39286	40204	40369
1090	0	32105	27549	25803	30602
1091	0	33791	40072	35765	33889
1092	0	44180	44682	27797	42030
1093	0	33977	38645	40764	35796
1094	0	30842	41507	28608	37440
1095	0	42666	39401	39356	31702
1096	0	25995	41618	33615	42578
1097	0	38090	25719	42119	35829
1098	0	34061	38764	30812	39760
1099	0	42489	42853	32813	39770
1100	0	35169	31477	36922	32058
1101	0	44631	28290	34128	35137
1102	0	26559	25526	28987	26100
1103	0	43039	29340	39575	34177
1104	0	28669	36621	36116	32662
1105	0	39522	42637	36369	39998
1106	0	31910	41670	44026	29030
1107	0	28525	26427	26323	37028
1108	0	31475	30925	31416	40219
1109	0	29595	37280	31003	38811
1110	0	30850	29703	39457	30213
1111	0	38958	31694	32545	32919
1112	0	35029	39292	37258	38839
1113	0	41077	34273	26888	31391
1114	0	28130	30459	38105	35803
1115	0	43842	29852	40282	44284
1116	0	31252	35586	37690	26304
1117	0	25271	41327	33342	42384
1118	0	27973	33812	30403	32832
1119	0	25915	27077	38397	29475
1120	0	38890	42121	38719	37306
1121	0	34941	29585	31490	33716
1122	0	30013	37437	43792	27766
1123	0	32470	42652	31295	39476
1124	0	25137	27119	27785	27157
1125	0	42461	35505	29622	42498
1126	0	41357	39586	37667	34241
1127	0	33895	28604	25361	26157
1128	0	40251	43287	30392	40990
1129	0	34911	30872	40504	36371
1130	0	42454	31459	26436	26767
1131	0	33534	32565	26447	41073
1132	0	29325	27104	31058	36198
1133	0	32735	40448	38994	43682
1134	0	31489	37172	25991	33048
1135	0	44638	34478	42449	33908
1136	0	26477	42514	37904	34949
1137	0	29290	32976	37505	26382
1138	0	31734	41446	36157	32270
1139	0	41829	31669	36987	26247
1140	0	37018	26533	40919	33914
1141	0	29558	27866	38301	26392
1142	0	25189	43140	29493	44148
1143	0	28790	27949	29482	37364
1144	0	35819	29833	44856	39860
1145	0	43031	26707	37010	33730
1146	0	26853	33789	28351	32359
1147	0	37612	25979	36053	27270
1148	0	28488	44593	44399	36802
1149	0	33747	36021	41752	44325
1150	0	30741	29716	27963	40537
1151	0	38067	37384	27482	33056
1152	0	25423	27341	27576	37638
1153	0	28611	25144	28654	25138
1154	0	37449	33108	32910	40359
1155	0	42998	32856	33356	44221
1156	0	39833	26360	44093	37961
1157	0	43502	27401	40888	42108
1158	0	33050	32243	27151	43217
1159	0	42954	33796	31954	41287
1160	0	31840	32148	26138	32595
1161	0	37423	37279	32621	44971
1162	0	43516	32587	33936	26213
1163	0	38000	38265	41216	44948
1164	0	29214	40387	43027	32920
1165	0	43954	41758	29171	32736
1166	0	42301	26291	43526	44774
1167	0	28163	38298	39284	39185
1168	0	27045	43569	39400	28834
1169	0	34316	29340	27428	42774
1170	0	40416	28830	41235	26001
1171	0	41365	33202	26772	36628
1172	0	29253	29852	41549	26860
1173	0	40066	31461	44873	26613
1174	0	44742	37397	41896	31975
1175	0	34345	41677	42283	40404
1176	0	35108	26125	33409	33789
1177	0	27655	38058	42482	37544
1178	0	38197	44060	42648	29901
1179	0	43775	43160	33597	34874
1180	0	30857	27584	36138	34363
1181	0	40629	41273	41516	39657
1182	0	34307	31334	26960	32789
1183	0	33791	25788	35055	42363
1184	0	41515	30513	39502	42383
1185	0	41096	44346	28051	37196
1186	0	34415	34455	35625	40527
1187	0	44688	44358	43603	31576
1188	0	39932	25078	32572	41553
1189	0	34692	36238	28752	30842
1190	0	35382	38398	27554	41558
1191	0	25362	41697	29796	41062
1192	0	31691	29636	33511	43168
1193	0	44289	41837	30501	39618
1194	0	40536	41280	34800	26689
1195	0	43430	38659	30777	44440
1196	0	33141	43523	37159	42188
1197	0	26532	28365	36956	29102
1198	0	28089	44823	34543	32170
1199	0	40924	35632	39820	36579
1200	0	42088	31539	40353	33953
1201	0	36856	27265	35771	37267
1202	0	34708	33363	27833	25756
1203	0	37158	32210	34608	38257
1204	0	26677	30621	27469	28746
1205	0	32519	39682	43373	29882
1206	0	29792	40006	27291	41845
1207	0	35542	36750	41643	26846
1208	0	43819	41668	38922	29419
1209	0	34845	30482	35951	30350
1210	0	28337	41751	26363	32549
1211	0	27374	31152	32221	35969
1212	0	35434	26330	38239	40842
1213	0	27403	40154	30884	32226
1214	0	35703	30878	27955	38538
1215	0	31730	31940	35953	36196
1216	0	35871	32716	36489	32778
1217	0	40962	26367	36900	41162
1218	0	35457	30240	36270	42106
1219	0	27604	33218	42914	34984
1220	0	31151	44823	44085	26323
1221	0	33018	29809	41730	30510
1222	0	34444	33865	39847	37771
1223	0	25753	40532	43665	42836
1224	0	37630	37419	28876	27077
1225	0	33655	26908	44670	31386
1226	0	37774	42543	40881	41586
1227	0	29035	26859	28333	28415
1228	0	31660	26730	25415	36172
1229	0	42080	28570	32010	31403
1230	0	39790	30388	35040	40982
1231	0	25836	26506	34555	41854
1232	0	28972	42556	31850	31895
1233	0	28715	40440	25793	31519
1234	0	25541	30985	41915	36854
1235	0	41568	35906	37292	44282
1236	0	41036	32678	44230	41470
1237	0	25716	36808	34008	42085
1238	0	27060	33606	36607	40258
1239	0	36918	28980	31805	30713
1240	0	28840	39154	32136	32375
1241	0	44362	38422	34775	28414
1242	0	33958	27038	42864	38382
1243	0	30034	36369	35315	41490
1244	0	37590	38511	40612	34296
1245	0	38775	33755	35394	27034
1246	0	32450	28462	26843	34021
1247	0	25795	39278	44506	37682
1248	0	39561	27106	34222	31423
1249	0	44274	26394	25807	39865
1250	0	43649	25365	39996	30718
1251	0	43767	27353	40972	25560
1252	0	41661	39833	34023	28977
1253	0	43214	27250	25887	35598
1254	0	33341	33460	36978	44625
1255	0	35097	39756	43722	35016
1256	0	37128	25892	35818	35166
1257	0	34420	43006	36185	37070
1258	0	34736	43399	43173	41133
1259	0	29028	36215	29462	28877
1260	0	25701	38836	32303	36370
1261	0	31155	25187	33738	42196
1262	0	36022	32533	35067	32684
1263	0	33854	44164	39240	34090
1264	0	36112	31932	33973	26716
1265	0	35435	30668	33874	44944
1266	0	39527	29903	30648	35296
1267	0	27471	42695	40497	33312
1268	0	37146	30525	27585	37483
1269	0	30312	32929	42421	30116
1270	0	44660	39547	32625	33834
1271	0	35653	33360	44836	40504
1272	0	39540	44797	27929	41534
1273	0	38204	35027	41244	41482
1274	0	37353	28383	44658	33764
1275	0	33958	34933	40961	41855
1276	0	38546	28364	27133	43211
1277	0	37657	44049	34056	42364
1278	0	42337	32811	34564	33811
1279	0	38774	35843	31166	44882
1280	0	38603	30530	32145	37502
1281	0	42816	42476	32477	30680
1282	0	42823	27704	36219	33781
1283	0	30086	37632	44847	28370
1284	0	27697	27476	25189	39220
1285	0	29014	34927	38753	28213
1286	0	43556	38182	39586	31702
1287	0	42633	30034	32261	37306
1288	0	44534	39089	44339	44910
1289	0	44607	33019	30484	42214
1290	0	40885	43279	34648	25698
1291	0	28434	34978	25958	38282
1292	0	33731	30563	44070	31758
1293	0	30951	42412	34189	36338
1294	0	25101	27088	36958	35465
1295	0	26138	36089	40896	26118
1296	0	32193	36277	26627	31318
1297	0	33612	27422	42248	37978
1298	0	36103	25756	42954	34840
1299	0	32703	28149	29038	31450
1300	0	38468	43891	37635	25453
1301	0	27648	39830	28111	31780
1302	0	35805	32707	25936	39550
1303	0	38485	39419	38595	33222
1304	0	39616	43060	40662	38776
1305	0	37589	39256	38453	37466
1306	0	44452	29727	38710	27239
1307	0	33687	42316	33101	43353
1308	0	39756	32999	28029	31711
1309	0	38507	28966	29965	38835
1310	0	30844	30419	31034	29662
1311	0	44440	27016	25225	37922
1312	0	28679	36695	26474	39291
1313	0	27970	29001	35993	28724
1314	0	26270	39864	33380	35958
1315	0	43354	40766	35113	40113
1316	0	29672	36865	40933	37924
1317	0	36891	29478	34391	42323
1318	0	27058	28432	44733	42743
1319	0	37361	41444	32765	30271
1320	0	39563	27952	39478	37610
1321	0	37327	41826	43681	32229
1322	0	27595	31430	33966	44551
1323	0	41479	25649	31844	37338
1324	0	25507	28229	42273	40050
1325	0	29899	33883	34716	43153
1326	0	36875	31481	33305	42946
1327	0	44607	30767	39596	33533
1328	0	34420	38235	33143	33114
1329	0	29278	34057	39736	43893
1330	0	32553	30175	28254	35490
1331	0	40260	33519	25066	44695
1332	0	28293	28560	36260	40065
1333	0	35703	39838	30171	36870
1334	0	40387	31149	38289	25255
1335	0	29836	30403	43486	43166
1336	0	32315	40326	27398	29692
1337	0	25240	26024	40174	27852
1338	0	43548	38440	38816	31888
1339	0	44434	30099	41894	28783
1340	0	29422	33823	27521	34914
1341	0	31159	30554	34504	41326
1342	0	42619	42633	25340	39143
1343	0	28883	25636	34444	43033
1344	0	43106	31938	34163	32732
1345	0	26171	40586	33028	31095
1346	0	43028	34408	32285	30624
1347	0	42274	38169	42141	44861
1348	0	35227	29304	25233	43710
1349	0	31218	39529	33954	32031
1350	0	31323	43561	43871	40554
1351	0	33121	29928	33704	34524
1352	0	42200	32621	39617	27455
1353	0	39910	29183	28909	34742
1354	0	34981	38888	29392	33505
1355	0	41789	44306	39859	39148
1356	0	28334	34332	25978	30617
1357	0	32382	25021	30249	32651
1358	0	30075	28773	27486	39475
1359	0	25402	32744	30510	40581
1360	0	34314	27064	43463	41233
1361	0	43378	40204	36625	32547
1362	0	25922	40551	37106	25026
1363	0	31981	30437	32385	34129
1364	0	41402	41395	44161	35215
1365	0	28511	35975	38833	34961
1366	0	40587	37773	35882	37416
1367	0	35450	33581	33547	25648
1368	0	38512	43930	41282	39139
1369	0	31972	32492	42632	41365
1370	0	29056	43978	28691	30978
1371	0	38610	38663	35185	30542
1372	0	41354	28686	27480	44701
1373	0	43112	44583	38910	32922
1374	0	39595	35774	36684	26979
1375	0	37381	32351	32491	41990
1376	0	38993	43855	31112	25953
1377	0	42281	27405	26129	37853
1378	0	33941	27664	38308	43331
1379	0	28015	28062	44162	43610
1380	0	33955	25149	34633	36361
1381	0	37717	38980	38990	38698
1382	0	34656	42012	41741	31585
1383	0	25117	43368	42903	35580
1384	0	37693	40935	25672	34604
1385	0	35718	41084	31079	29172
1386	0	44888	33583	34075	26426
1387	0	37216	35100	28067	41637
1388	0	44876	36745	29820	32269
1389	0	41932	41933	43523	41131
1390	0	44923	30529	43012	40813
1391	0	32767	30805	34678	26882
1392	0	44476	43060	27382	27643
1393	0	27861	37826	30381	37364
1394	0	31178	27870	35612	44654
1395	0	44097	42148	25608	38352
1396	0	36273	29929	38328	42468
1397	0	25656	29080	40751	43118
1398	0	27948	40044	42101	35038
1399	0	39483	36179	32506	29566
1400	0	39126	39076	29628	27643
1401	0	38323	41444	31034	28722
1402	0	31852	43724	39418	34045
1403	0	34437	42526	36683	26898
1404	0	36785	32170	34827	44141
1405	0	33294	44602	38232	33044
1406	0	29231	41577	41566	30474
1407	0	43053	33471	26086	44796
1408	0	34034	38864	39416	29556
1409	0	41435	34729	32152	39152
1410	0	44855	26376	44536	38393
1411	0	35302	33823	32256	25166
1412	0	39918	44591	35931	36104
1413	0	29856	31207	26067	42583
1414	0	27425	25812	40569	31438
1415	0	34492	43727	36752	27887
1416	0	40824	25756	42181	30563
1417	0	42290	27136	26618	30398
1418	0	25108	27192	32946	35462
1419	0	36863	29564	34389	29197
1420	0	40934	31673	38559	43172
1421	0	29733	37878	34099	31918
1422	0	28697	36231	39801	36371
1423	0	44340	29127	37255	26987
1424	0	31162	36297	38818	44869
1425	0	32280	44237	32995	31441
1426	0	29925	43450	35027	28755
1427	0	33298	40266	32555	33929
1428	0	44296	38661	28586	33506
1429	0	25318	31129	31314	38097
1430	0	36239	37511	32719	33791
1431	0	29391	39105	30782	40022
1432	0	33265	26672	34084	43252
1433	0	40513	31550	27245	42947
1434	0	29465	27325	33407	35649
1435	0	44408	41710	38322	26900
1436	0	34087	34111	30673	43461
1437	0	33713	28092	28815	39885
1438	0	32078	40715	44045	34436
1439	0	41380	42193	33431	42776
1440	0	26925	37792	38571	34995
1441	0	34508	37696	36182	44192
1442	0	29917	32348	41412	31143
1443	0	27146	27768	40425	27256
1444	0	25013	42186	25049	42914
1445	0	34224	38331	31311	30555
1446	0	43465	30027	28611	41758
1447	0	31967	30873	26172	37144
1448	0	36525	39867	26474	27462
1449	0	31873	43881	37691	31443
1450	0	43173	34397	37481	36437
1451	0	44923	30227	36372	26135
1452	0	36150	25930	29703	40238
1453	0	32488	25376	31873	32869
1454	0	38915	38639	31076	42244
1455	0	39717	27286	27577	25345
1456	0	35002	41116	28160	32387
1457	0	31827	25520	44560	34294
1458	0	28689	33825	29351	37844
1459	0	28112	30713	44689	39889
1460	0	36799	40538	40355	33575
1461	0	35514	38635	33043	40333
1462	0	41537	43767	33629	39944
1463	0	28491	27488	39493	37670
1464	0	40649	26465	38157	44141
1465	0	25281	41655	39958	41594
1466	0	41636	43186	32199	32463
1467	0	35043	25023	34165	34557
1468	0	34822	39412	34906	30227
1469	0	33296	37347	40151	43375
1470	0	43468	28044	38445	25485
1471	0	43617	27228	34072	41427
1472	0	36098	41140	44391	40700
1473	0	40535	40741	35448	37308
1474	0	39410	42354	39278	37705
1475	0	27302	26514	30448	28575
1476	0	39667	41770	37181	44033
1477	0	27396	32220	34783	27920
1478	0	42904	39330	25923	29952
1479	0	40878	29726	33079	43827
1480	0	39052	31950	36074	44394
1481	0	32426	44226	35628	42766
1482	0	27917	39999	36402	34229
1483	0	35579	25749	34065	34123
1484	0	25076	27771	39707	28387
1485	0	26501	33350	44870	26997
1486	0	39322	41514	29759	39441
1487	0	41798	38025	38654	42402
1488	0	31050	38573	34339	36494
1489	0	33050	26240	32222	37319
1490	0	34144	38382	32386	44039
1491	0	42610	29453	37526	35300
1492	0	32396	42698	29123	39392
1493	0	35088	41625	43061	27094
1494	0	33639	44280	44362	43286
1495	0	44482	36139	40564	36823
1496	0	38938	29493	26669	44568
1497	0	34197	28813	26649	29623
1498	0	29141	39478	25635	26935
1499	0	26716	28124	44987	26200
1500	0	31066	28792	44769	43682
1501	0	25958	41546	43362	43812
1502	0	32448	43361	35234	40346
1503	0	31822	39387	43442	27262
1504	0	32908	30968	33676	36754
1505	0	34641	41893	37655	34539
1506	0	36630	25653	39380	31877
1507	0	27458	27137	36155	38698
1508	0	41952	35836	43312	25054
1509	0	30255	27993	34234	33526
1510	0	42460	27888	41515	36295
1511	0	25298	42873	26443	26939
1512	0	33737	34055	28992	25821
1513	0	31096	29402	25161	29557
1514	0	37454	34408	26854	33113
1515	0	40115	30624	40654	38001
1516	0	37013	42971	33201	42371
1517	0	43758	35781	29483	34818
1518	0	37905	42244	36555	32984
1519	0	38154	41264	40832	40956
1520	0	31887	27825	39533	28655
1521	0	36254	36324	40630	26192
1522	0	34976	34967	37730	35864
1523	0	39789	29469	37453	42923
1524	0	37335	43507	29555	31446
1525	0	26554	32431	44331	38520
1526	0	44185	36419	36053	41411
1527	0	40251	34246	38751	30400
1528	0	36619	40695	26519	31135
1529	0	35458	42571	29410	28655
1530	0	35559	28121	37304	30857
1531	0	31451	43640	35429	40872
1532	0	43033	25382	37958	28005
1533	0	38013	30551	37271	41801
1534	0	42861	37977	31262	41083
1535	0	32483	26696	41073	31530
1536	0	35386	37887	36602	26171
1537	0	37261	44180	44584	41107
1538	0	42950	29322	35513	34168
1539	0	25052	26530	25978	30453
1540	0	34335	39335	40769	28644
1541	0	32849	39385	42337	43966
1542	0	29081	27742	42403	38641
1543	0	35183	34918	37120	35066
1544	0	38877	40283	26970	30250
1545	0	42421	33663	29411	39465
1546	0	43421	26404	32306	41959
1547	0	35251	35075	30013	37295
1548	0	43243	30426	35997	35411
1549	0	36953	37862	31234	35731
1550	0	43008	31892	28369	43369
1551	0	25761	36071	39621	38125
1552	0	39168	37647	37846	32223
1553	0	29863	31519	30476	29826
1554	0	36441	29262	39661	41376
1555	0	39380	40239	40929	27877
1556	0	37887	36644	36008	36320
1557	0	37259	33018	33059	32017
1558	0	37274	34540	40267	38313
1559	0	40373	26828	33663	40280
1560	0	34572	30764	40371	41817
1561	0	31559	41750	29523	39329
1562	0	44041	34454	33988	34173
1563	0	27158	36933	26143	38743
1564	0	31698	44713	38831	29165
1565	0	34931	42709	32469	31597
1566	0	29709	28152	44271	41739
1567	0	28064	34212	30807	42052
1568	0	33734	40681	39664	43757
1569	0	26105	27825	31161	28023
1570	0	37934	44823	30730	28801
1571	0	31623	38825	42013	35304
1572	0	26376	34271	34462	43892
1573	0	42378	30886	28360	40683
1574	0	36216	29132	44586	37686
1575	0	33408	29894	39103	36787
1576	0	28129	32539	35189	44687
1577	0	34930	41006	32885	32810
1578	0	25424	42484	42376	43542
1579	0	36082	25966	25836	44110
1580	0	44545	41077	39504	25512
1581	0	44418	28551	41037	36844
1582	0	37358	29383	40904	42833
1583	0	28162	40646	30497	43620
1584	0	38478	33248	31767	35995
1585	0	44060	40333	26503	33265
1586	0	32189	30147	36484	25129
1587	0	43563	43016	41881	43510
1588	0	31281	43590	25329	29257
1589	0	39550	35235	35637	36897
1590	0	35056	27427	33707	29173
1591	0	43742	39807	42546	31127
1592	0	32611	40941	31702	44977
1593	0	25157	40178	41003	37614
1594	0	42120	27750	35151	44121
1595	0	25467	35108	31262	28742
1596	0	28258	33232	32752	28083
1597	0	40694	42367	44024	44477
1598	0	34318	44604	44336	42582
1599	0	26681	29906	34286	28847
1600	0	39952	31037	33109	29282
1601	0	28468	41458	34146	36328
1602	0	27192	30233	25471	28529
1603	0	31182	28741	27922	35794
1604	0	27374	33671	32160	37765
1605	0	42605	39743	33644	36381
1606	0	43959	31499	32086	32745
1607	0	36364	42040	32881	38932
1608	0	27895	32569	34447	42227
1609	0	26003	34677	34897	27646
1610	0	44773	28596	36954	30159
1611	0	26091	37635	39603	28246
1612	0	27295	39581	41375	33125
1613	0	40198	33695	35915	35064
1614	0	35479	29338	41000	44592
1615	0	35041	37040	31347	31413
1616	0	37586	27453	32711	44071
1617	0	27522	38972	33264	25329
1618	0	31681	36956	40258	30099
1619	0	25750	36306	34696	38846
1620	0	43462	25110	41492	33926
1621	0	40975	30401	42808	35197
1622	0	33920	38870	26722	42936
1623	0	30227	25982	29868	43634
1624	0	33126	29798	40533	44541
1625	0	31200	38467	28823	42993
1626	0	37550	32354	41204	28753
1627	0	28139	37257	29070	37842
1628	0	34627	34351	35814	36986
1629	0	32486	28930	41341	41109
1630	0	38461	43035	33528	44779
1631	0	40679	30600	26676	32479
1632	0	32140	36033	33631	42650
1633	0	36240	44011	32968	39616
1634	0	40195	31689	31340	38054
1635	0	26566	43917	32848	35149
1636	0	27051	31925	44460	27587
1637	0	26428	41202	33064	36029
1638	0	36937	39971	26487	28972
1639	0	25254	33561	26396	28133
1640	0	29753	38679	26323	44254
1641	0	44321	43098	35660	42317
1642	0	27455	25614	35069	42473
1643	0	34579	29393	38478	43587
1644	0	25991	41762	28913	34237
1645	0	35779	43705	40302	31967
1646	0	26842	41164	28718	44053
1647	0	26633	27315	42264	33996
1648	0	34685	32043	43314	27813
1649	0	29499	25387	39924	32681
1650	0	28964	25183	35441	32555
1651	0	36442	37317	27595	43926
1652	0	32893	27084	29258	35656
1653	0	25397	25618	26519	32571
1654	0	27035	31753	30513	40256
1655	0	35258	38538	43301	32126
1656	0	30527	32459	29318	36747
1657	0	42699	32233	43804	39554
1658	0	31430	36578	28808	37429
1659	0	26326	31898	26483	38771
1660	0	30679	39512	25984	41456
1661	0	35595	26361	34666	25174
1662	0	36670	34465	25721	29260
1663	0	29487	28956	35243	30925
1664	0	26701	36041	44708	43238
1665	0	25083	34196	42051	42762
1666	0	28495	30214	30857	36757
1667	0	31814	39234	28326	43987
1668	0	40465	26303	39524	27254
1669	0	30895	29233	38760	28691
1670	0	27347	31611	41198	26388
1671	0	39334	39520	35354	39870
1672	0	42687	37302	28624	25148
1673	0	42950	28128	33777	37625
1674	0	42926	39537	30542	26953
1675	0	36347	40697	35891	28878
1676	0	41130	28858	40032	43920
1677	0	30096	34220	44276	28774
1678	0	37083	25934	37779	25839
1679	0	44015	30064	30646	36640
1680	0	40671	34931	38681	35893
1681	0	30791	41279	30741	30464
1682	0	42474	32293	38398	39954
1683	0	36335	43710	37818	29404
1684	0	38554	37576	32875	27148
1685	0	34893	29673	37176	32083
1686	0	43013	44280	28877	27360
1687	0	34351	31006	38063	43624
1688	0	30214	34429	43093	40242
1689	0	33524	37096	36868	39918
1690	0	34320	29903	28425	39675
1691	0	44283	36294	26385	25624
1692	0	29255	37945	41704	43568
1693	0	44388	28910	39204	44257
1694	0	31040	30457	32002	29379
1695	0	29225	29723	31475	42994
1696	0	43905	31119	38496	43817
1697	0	41591	25418	43628	36010
1698	0	27783	31258	40029	26486
1699	0	33736	26885	26278	43183
1700	0	39282	34815	34562	25679
1701	0	30032	38491	29122	41478
1702	0	44698	30190	27097	32281
1703	0	38397	29895	42903	40544
1704	0	26907	32811	40639	26677
1705	0	36066	33555	26056	28979
1706	0	32024	28814	41704	30494
1707	0	26354	25817	40052	29087
1708	0	31700	32621	35504	30172
1709	0	44909	44805	29965	42871
1710	0	37624	29937	32671	36841
1711	0	33827	37845	34868	40457
1712	0	32783	39886	38415	41800
1713	0	28215	31414	38800	42220
1714	0	42860	39315	27562	40175
1715	0	34698	26709	35214	36592
1716	0	32599	37921	44707	42465
1717	0	33916	27264	32663	42809
1718	0	41315	27403	41836	44640
1719	0	31536	40930	36133	43139
1720	0	39655	39016	44525	34614
1721	0	41226	38062	32790	38972
1722	0	38942	40450	36331	27721
1723	0	38248	39106	41761	28995
1724	0	33223	38110	39278	40085
1725	0	30985	43646	37909	43865
1726	0	38910	31605	29693	27793
1727	0	32134	40118	40870	35473
1728	0	25291	31045	41496	35941
1729	0	37534	30175	33990	33017
1730	0	36359	31647	30661	34279
1731	0	39711	38284	32215	33772
1732	0	35073	36824	30278	36714
1733	0	42359	25157	34902	35970
1734	0	37708	41743	39563	38919
1735	0	37750	41753	38516	26608
1736	0	33962	27487	28339	31038
1737	0	35288	37805	39471	31921
1738	0	34348	40912	32276	25093
1739	0	40143	44872	36762	38243
1740	0	40331	36342	37297	29109
1741	0	35008	36342	36709	42408
1742	0	44981	38448	38857	35905
1743	0	43415	25070	40217	35090
1744	0	39168	34183	26660	30169
1745	0	42596	26125	44951	26317
1746	0	34863	32830	27569	33151
1747	0	29783	41841	40970	26325
1748	0	28259	36802	32644	41418
1749	0	26711	27931	26324	29078
1750	0	41827	25786	25660	29620
1751	0	34999	34888	26150	40411
1752	0	35390	27028	29012	44595
1753	0	33403	40210	33680	44445
1754	0	35126	33806	30025	43846
1755	0	42085	41948	40430	32084
1756	0	31352	27101	28032	42522
1757	0	34729	27931	28714	35717
1758	0	43614	31332	39938	31749
1759	0	31397	42870	28507	25512
1760	0	31720	26808	28004	38583
1761	0	33058	35329	34485	28876
1762	0	40142	28067	36119	29946
1763	0	39596	26019	39455	43866
1764	0	29680	33127	43969	39360
1765	0	44783	25164	28467	41358
1766	0	33968	29339	42100	38115
1767	0	35905	34322	25559	35054
1768	0	34834	37497	43134	37901
1769	0	30233	27553	33658	29892
1770	0	25887	25871	31612	31188
1771	0	39883	34103	44589	39254
1772	0	26691	34180	34761	40575
1773	0	34387	27501	38927	35189
1774	0	28931	28962	38185	40099
1775	0	37024	31289	41497	28114
1776	0	41301	43751	31480	41761
1777	0	31321	37136	26773	36450
1778	0	44902	31309	28496	38309
1779	0	26860	42472	25329	39314
1780	0	39043	31970	36197	35433
1781	0	40976	28189	31061	37618
1782	0	39563	43884	31446	34623
1783	0	41865	42157	27145	35684
1784	0	39653	40696	43555	43844
1785	0	37939	36502	32719	44903
1786	0	42222	27742	38412	30239
1787	0	42045	37615	28049	41883
1788	0	44108	44279	35592	35589
1789	0	44040	33867	30153	27241
1790	0	39806	44413	35526	41316
1791	0	27389	33256	34366	41997
1792	0	36042	36665	34156	41465
1793	0	28666	41767	33058	28362
1794	0	39989	38509	30177	25516
1795	0	36903	34710	41100	28038
1796	0	35560	29394	27161	42760
1797	0	39124	37373	39633	40286
1798	0	44707	42990	33277	38219
1799	0	27914	32355	39332	31992
1800	0	27539	44382	39492	39268
1801	0	43144	40331	30776	39596
1802	0	25069	30269	41081	43769
1803	0	41487	42301	35028	33771
1804	0	42629	26497	25027	36436
1805	0	40055	30480	26904	27902
1806	0	34957	43168	28919	38505
1807	0	39466	34310	40254	39847
1808	0	36584	43981	35683	33155
1809	0	27289	35396	30834	35808
1810	0	33322	26893	25757	43040
1811	0	40306	29192	37482	43651
1812	0	32254	40825	25538	34502
1813	0	35116	40802	36987	25157
1814	0	31146	43306	27544	36716
1815	0	44540	39379	44409	40682
1816	0	29947	44522	42211	30530
1817	0	27805	31659	25606	44574
1818	0	31678	32681	30909	39869
1819	0	27383	38873	30432	40329
1820	0	28166	28347	35778	39658
1821	0	32748	25193	37871	40119
1822	0	34072	42780	30395	35958
1823	0	28481	34793	33688	43376
1824	0	36717	38188	42411	35839
1825	0	36931	25443	43786	42216
1826	0	32107	40656	38423	35915
1827	0	41968	41607	29851	27240
1828	0	41724	31896	41050	42879
1829	0	35758	27400	34426	43416
1830	0	28457	32972	36519	42611
1831	0	35497	37752	37091	31010
1832	0	25808	25185	26407	36543
1833	0	37771	43592	27144	42242
1834	0	43429	28260	42168	34801
1835	0	31456	30169	28397	27815
1836	0	44103	42983	34955	41226
1837	0	30859	38089	35085	38140
1838	0	26815	36147	37199	25691
1839	0	43764	44826	36327	43123
1840	0	34149	26273	43364	35044
1841	0	43167	44750	32516	36381
1842	0	35169	37925	43218	33265
1843	0	34853	32659	35103	39516
1844	0	28580	43752	44301	28101
1845	0	34955	33513	26373	29474
1846	0	43001	29477	34762	28250
1847	0	33878	34483	28467	28909
1848	0	40841	26825	30691	25972
1849	0	30332	40959	31046	34521
1850	0	32597	39378	27325	33596
1851	0	41294	34921	32276	40309
1852	0	44763	33318	42539	36449
1853	0	38462	27107	27107	44111
1854	0	43830	33754	37935	36916
1855	0	32528	43925	34109	44703
1856	0	41520	27189	25562	37857
1857	0	34167	37948	30161	31655
1858	0	44926	33045	42639	39556
1859	0	41469	39409	37384	37174
1860	0	35841	26810	38908	43298
1861	0	29267	25001	32465	44952
1862	0	34421	25712	34126	25453
1863	0	25445	33953	36998	31700
1864	0	36151	36144	38828	44513
1865	0	31161	40239	27756	37608
1866	0	34242	35502	25204	44765
1867	0	43521	40893	43183	37327
1868	0	43557	38326	32563	39497
1869	0	36759	35267	41071	31140
1870	0	29965	26294	44119	27247
1871	0	43223	35307	26535	37361
1872	0	43068	26073	35685	37076
1873	0	40815	42782	36966	26672
1874	0	40882	27255	43703	39816
1875	0	30158	25641	30059	40954
1876	0	39424	41483	44074	38573
1877	0	27476	39366	40747	28503
1878	0	25390	34518	43146	25889
1879	0	44766	31970	38328	43960
1880	0	44714	26074	27851	30425
1881	0	34090	32570	44350	39399
1882	0	43247	31796	37901	29365
1883	0	37393	43372	39256	30132
1884	0	39613	41471	43557	26582
1885	0	44278	33741	35805	38426
1886	0	40508	30111	30151	25205
1887	0	31929	31955	25051	29476
1888	0	27468	44830	44089	41156
1889	0	32069	39338	28402	32796
1890	0	37342	44237	38259	30648
1891	0	38113	43596	38293	28808
1892	0	32912	30661	44661	40005
1893	0	43984	35904	29147	32079
1894	0	37873	31903	40877	42768
1895	0	27838	29555	42154	38693
1896	0	34910	29966	40357	33956
1897	0	34514	27560	26819	41043
1898	0	27380	28175	42859	40072
1899	0	41497	25603	27463	36445
1900	0	41896	31655	43497	38561
1901	0	34120	28369	40364	29299
1902	0	26933	32854	41950	35704
1903	0	34567	38360	44261	43993
1904	0	29437	25881	33866	41623
1905	0	33147	33990	25002	37313
1906	0	33302	39964	42255	41765
1907	0	27224	42611	28669	40429
1908	0	44826	42507	25964	25624
1909	0	41004	38466	41245	35326
1910	0	34956	34917	25276	44944
1911	0	38378	41244	34079	44587
1912	0	43670	35130	28855	29896
1913	0	25533	29887	33466	36850
1914	0	28792	44998	35751	38337
1915	0	25867	37782	39127	30919
1916	0	43945	32479	26252	29890
1917	0	29101	35275	43430	37734
1918	0	39507	25886	41960	33611
1919	0	43588	28618	43191	28245
1920	0	31589	35701	42461	28449
1921	0	32133	37718	37454	39014
1922	0	32147	32726	33651	41398
1923	0	31394	41331	37080	36480
1924	0	43884	31962	28934	29674
1925	0	33721	44372	33725	27921
1926	0	39067	40576	41703	26053
1927	0	31014	36341	39487	39450
1928	0	44179	32231	44265	42220
1929	0	39604	39669	37094	27061
1930	0	26053	44240	34859	28348
1931	0	29812	36453	36555	31903
1932	0	33893	44355	33770	26701
1933	0	37228	27125	29036	34123
1934	0	32373	35107	34241	38957
1935	0	25250	37855	38928	27008
1936	0	37207	37464	30317	26673
1937	0	28928	25126	32419	25853
1938	0	30842	38234	43535	28336
1939	0	28406	26826	37499	42799
1940	0	30030	43743	26191	44484
1941	0	42681	30642	43594	39046
1942	0	39473	31363	36416	33061
1943	0	34021	36771	32312	34679
1944	0	30167	39376	38362	30100
1945	0	43123	28556	34033	40763
1946	0	25483	44664	42636	42662
1947	0	35305	34912	32568	27043
1948	0	27476	27290	34750	31196
1949	0	38908	40697	35763	42002
1950	0	33748	40604	28646	31011
1951	0	34116	40185	39342	40938
1952	0	34404	30275	41049	32586
1953	0	26285	37633	31573	37884
1954	0	37368	43761	43835	29043
1955	0	33466	26192	33735	28590
1956	0	43972	38202	25781	42300
1957	0	32008	30440	26746	42010
1958	0	40531	38132	33957	30254
1959	0	31331	31782	30113	32499
1960	0	36249	43211	25364	39988
1961	0	44397	31821	25823	41990
1962	0	34432	30992	41200	26300
1963	0	37430	26615	31170	33371
1964	0	27717	42076	33865	34191
1965	0	34230	43776	33106	32241
1966	0	43657	39320	31094	39364
1967	0	31436	37329	40138	38563
1968	0	39676	43675	41409	43136
1969	0	43334	28180	34186	42455
1970	0	41730	32652	44075	26355
1971	0	38140	39726	31352	42318
1972	0	25029	37157	44945	38626
1973	0	41587	38530	28751	28670
1974	0	39680	27039	25357	42189
1975	0	30866	29461	36840	25208
1976	0	31054	27987	34132	44405
1977	0	25995	39353	33215	27167
1978	0	28598	42910	36753	44796
1979	0	39348	40534	31840	34598
1980	0	31622	43531	44661	39520
1981	0	36870	29893	27467	34717
1982	0	37943	39434	25333	29229
1983	0	35285	27826	36590	35086
1984	0	26815	31484	33995	32933
1985	0	36923	35248	35165	35400
1986	0	42272	39649	37845	42690
1987	0	25928	41400	27915	32883
1988	0	27926	32242	32992	30890
1989	0	30717	31369	40390	43900
1990	0	33669	31835	44815	28439
1991	0	25772	38578	37465	32548
1992	0	36176	40774	25136	29164
1993	0	44695	40741	33251	26117
1994	0	33293	36891	33402	29099
1995	0	38147	36014	31002	33557
1996	0	34756	39018	33045	28052
1997	0	41143	27610	35728	41989
1998	0	32452	29644	36438	28299
1999	0	30841	42304	29616	41334
2000	0	38509	30835	30378	34581
2001	0	29096	38406	35371	30575
2002	0	36423	32144	30591	39267
2003	0	37204	44581	37112	43595
2004	0	35788	29812	39020	40594
2005	0	29131	36110	29640	35680
2006	0	27959	32752	35574	32205
2007	0	43295	36640	28755	29583
2008	0	42377	39297	38575	44934
2009	0	36675	44592	28721	41101
2010	0	40245	26374	30698	36431
2011	0	34352	33040	43737	42808
2012	0	31175	38049	27683	26526
2013	0	26948	44750	31270	27981
2014	0	37929	34895	27835	32909
2015	0	29845	44589	35287	39441
2016	0	41289	37741	37427	35570
2017	0	30730	25139	36291	29796
2018	0	35427	25451	36648	30017
2019	0	39140	44459	30905	26714
2020	0	40210	41760	39763	29381
2021	0	26633	37464	25034	31369
2022	0	31425	30347	31037	33795
2023	0	33069	31647	30986	39820
2024	0	30344	30200	35761	33997
2025	0	31843	38800	31715	25132
2026	0	29203	32619	39282	33814
2027	0	26200	32409	38469	31641
2028	0	33498	25315	41951	28156
2029	0	30321	26049	37421	30310
2030	0	29048	42061	40088	37659
2031	0	27703	43489	34374	40307
2032	0	25192	27603	42372	38893
2033	0	33514	43959	43755	43312
2034	0	38326	41775	40277	44334
2035	0	29064	42422	28279	34347
2036	0	43753	27104	28554	29348
2037	0	37388	44801	42528	30429
2038	0	44112	35165	44874	41096
2039	0	32233	43024	35585	26759
2040	0	44445	36991	44698	28005
2041	0	42763	26882	28627	44965
2042	0	42026	34651	32497	40289
2043	0	29393	42551	25589	34321
2044	0	40496	39425	33920	36779
2045	0	31017	27680	25998	29807
2046	0	25163	26628	30921	38214
2047	0	37628	35586	40071	30161
2048	0	39026	30164	29806	31080
2049	0	26742	41261	36154	32168
2050	0	42554	34645	36844	27357
2051	0	37148	44942	36929	36642
2052	0	28296	36591	41437	25069
2053	0	31465	32614	29724	33333
2054	0	27275	42420	35145	38456
2055	0	29714	28767	33553	38475
2056	0	36501	40621	40623	35932
2057	0	26168	38429	25950	25148
2058	0	36274	36158	26716	38618
2059	0	27030	27623	27232	43652
2060	0	31695	27222	34321	31295
2061	0	42631	35754	27717	30519
2062	0	34149	37327	35256	44999
2063	0	26846	34998	44370	28851
2064	0	37138	36783	28819	37257
2065	0	39896	31074	42189	29975
2066	0	35573	28578	41468	36987
2067	0	31480	35225	32137	43418
2068	0	44200	33728	25206	32013
2069	0	32307	36624	42744	31593
2070	0	26668	38136	37532	37781
2071	0	42281	34871	39271	35747
2072	0	32655	26120	27198	36203
2073	0	30649	31961	31970	41950
2074	0	27066	41511	27034	43560
2075	0	25017	37114	38038	36570
2076	0	35881	35442	44737	38574
2077	0	39881	31492	30855	44216
2078	0	29744	40125	27540	41619
2079	0	39815	27774	38757	39278
2080	0	31742	38092	37637	35104
2081	0	33121	27398	31803	38130
2082	0	41439	25410	35213	37925
2083	0	44412	28756	40747	27754
2084	0	25293	31148	25525	41285
2085	0	32149	32844	34539	41052
2086	0	31591	26432	43499	36170
2087	0	42252	37306	42975	27187
2088	0	44118	35768	42704	26926
2089	0	29924	37878	32730	42400
2090	0	37821	35572	26636	27811
2091	0	33124	39820	36713	36436
2092	0	31477	40104	27410	40817
2093	0	28357	39509	43610	37423
2094	0	27590	41416	29255	44622
2095	0	44371	43233	38420	42426
2096	0	39599	27206	39789	36838
2097	0	32349	30424	35298	36431
2098	0	32799	32301	35122	28951
2099	0	33036	36378	41289	35287
2100	0	36999	41497	40572	44027
2101	0	42644	28153	36798	43485
2102	0	35568	25532	29025	28850
2103	0	38007	28815	30933	25170
2104	0	37187	44155	36443	27459
2105	0	33885	41131	40028	32032
2106	0	44357	39461	36007	30455
2107	0	25322	36465	43463	43695
2108	0	37554	43927	44239	35799
2109	0	34678	28567	27979	38961
2110	0	32596	34734	33747	30855
2111	0	30466	42902	34875	41863
2112	0	25378	39873	42934	26630
2113	0	44414	25419	42842	29575
2114	0	28512	40369	41361	30993
2115	0	37807	39539	43875	41154
2116	0	42072	44823	36360	33637
2117	0	36318	34020	37708	34259
2118	0	36619	29429	28905	28305
2119	0	34512	42783	34306	33411
2120	0	36212	34520	28597	44208
2121	0	39270	31648	26293	37939
2122	0	25029	37413	33287	38317
2123	0	28604	31677	38574	32440
2124	0	25292	42213	32819	42693
2125	0	44852	35209	36895	30066
2126	0	27904	34231	29364	31388
2127	0	25398	43226	37400	28602
2128	0	38004	38910	26871	28735
2129	0	28501	37916	38320	35689
2130	0	43349	43539	44863	25399
2131	0	27267	44594	26846	39508
2132	0	42366	34180	36215	27242
2133	0	33648	44122	38471	29414
2134	0	41778	26631	30413	41578
2135	0	28826	36673	40301	31697
2136	0	41873	28274	29425	28644
2137	0	26406	39934	31931	27897
2138	0	40893	41189	32827	34226
2139	0	36631	29527	39383	27969
2140	0	30290	35087	25145	25580
2141	0	31827	30999	37821	31175
2142	0	42977	35533	37294	27627
2143	0	43592	25624	43960	34498
2144	0	43749	41169	39580	38825
2145	0	29077	26387	44598	29608
2146	0	35786	27204	38641	43141
2147	0	35570	32014	38629	32003
2148	0	42855	42127	44254	27534
2149	0	35662	40684	26946	35507
2150	0	26727	35051	31417	44353
2151	0	29898	32103	26957	41017
2152	0	33542	39196	43096	30971
2153	0	36644	39914	36764	29421
2154	0	32945	39831	26349	37025
2155	0	34749	34907	31100	25871
2156	0	40826	42305	34359	41251
2157	0	44558	25221	26721	27157
2158	0	42837	40182	41828	39575
2159	0	33026	42370	40427	34006
2160	0	28863	33129	39467	42673
2161	0	34595	37161	41140	41788
2162	0	30732	28612	43920	29737
2163	0	38936	34084	25333	40181
2164	0	42779	34470	26214	33374
2165	0	40203	40707	27814	30756
2166	0	44208	30355	42849	38428
2167	0	27767	40524	28642	41979
2168	0	32650	34454	43389	30880
2169	0	37226	27786	30393	33360
2170	0	38527	27410	27534	30366
2171	0	27598	25209	44918	38292
2172	0	41374	43713	27212	36221
2173	0	42701	35623	28034	28166
2174	0	41504	38719	25655	32234
2175	0	37803	28330	30212	34272
2176	0	43235	25993	33082	38066
2177	0	29688	31228	30247	29042
2178	0	36054	44342	39295	30620
2179	0	28536	34925	41098	42488
2180	0	33818	36667	40715	35830
2181	0	32203	39100	42988	44841
2182	0	44100	25850	43502	31675
2183	0	28262	36165	27353	39293
2184	0	43878	26672	38631	25856
2185	0	37465	28351	44609	29380
2186	0	27873	44262	33418	33620
2187	0	41627	25126	40689	31998
2188	0	37344	27309	36918	35334
2189	0	34080	41365	40819	34841
2190	0	33627	35893	40574	32180
2191	0	35660	31669	29395	43834
2192	0	40297	34624	35183	27598
2193	0	25844	38733	38815	37967
2194	0	42410	28939	39341	34507
2195	0	34598	42803	41688	43811
2196	0	33066	36528	44461	38834
2197	0	28271	44883	42553	28111
2198	0	25259	38939	43696	43499
2199	0	34805	42525	27649	35425
2200	0	26968	31834	28282	37991
2201	0	36004	42474	31853	36364
2202	0	28990	37105	42687	26269
2203	0	39872	33472	33825	29660
2204	0	27722	26476	43985	29990
2205	0	32875	25102	27504	32346
2206	0	32021	28918	39746	38497
2207	0	28828	25756	27712	42922
2208	0	30493	28180	42432	34337
2209	0	30194	37048	32622	37480
2210	0	36124	32287	32832	28301
2211	0	31232	29643	27592	39532
2212	0	40509	35667	31447	41464
2213	0	38651	32967	43602	41456
2214	0	32907	41524	27182	32506
2215	0	36994	25653	28060	44369
2216	0	28111	40550	38078	27119
2217	0	25944	39539	29715	37823
2218	0	36273	34207	40086	39483
2219	0	25316	30294	32459	44557
2220	0	38616	33004	42041	44114
2221	0	29098	33376	34811	30930
2222	0	34038	39365	41492	37160
2223	0	27288	38903	27524	35361
2224	0	33871	35234	27607	33235
2225	0	29471	36244	34167	32932
2226	0	38355	35000	42559	25868
2227	0	33992	32010	36567	35165
2228	0	39650	29900	29406	25694
2229	0	39451	26188	43528	30548
2230	0	27786	25759	39134	26440
2231	0	44768	26188	27789	26993
2232	0	34675	25025	38875	39821
2233	0	30815	27775	41046	30236
2234	0	28643	38141	40084	32920
2235	0	36322	33575	30188	28884
2236	0	34034	30550	26598	34775
2237	0	39415	42335	37883	34285
2238	0	29659	37720	41744	31743
2239	0	36833	33483	41098	36156
2240	0	33555	25808	35218	42686
2241	0	40456	40012	44070	40509
2242	0	34092	31737	38289	44466
2243	0	40050	44968	35113	34674
2244	0	31250	39274	32587	27153
2245	0	34696	28076	33948	44489
2246	0	25455	32301	25264	32319
2247	0	36912	35181	42778	29762
2248	0	34030	35425	31118	32568
2249	0	38599	42301	34288	40410
2250	0	32938	28446	41432	29220
2251	0	37846	41730	28598	43774
2252	0	30662	41660	36001	44227
2253	0	32458	35434	31527	37626
2254	0	30624	41401	28817	30735
2255	0	37356	32079	27468	40726
2256	0	28088	31922	34235	31505
2257	0	29139	39198	27538	28306
2258	0	38457	28480	30570	27422
2259	0	25882	31927	35555	37899
2260	0	37302	41447	31940	28057
2261	0	37449	31774	34564	28682
2262	0	26161	26957	42376	43592
2263	0	41744	28092	27951	31967
2264	0	28984	38910	36095	38668
2265	0	44872	36192	37832	28463
2266	0	44478	41446	41834	30688
2267	0	25870	33343	36683	39376
2268	0	26112	39839	43695	43126
2269	0	39692	26043	36633	31582
2270	0	34693	34510	42039	44533
2271	0	43747	31138	34993	36220
2272	0	34910	31565	38324	37646
2273	0	33756	27568	36575	36441
2274	0	34794	25589	29353	44899
2275	0	40797	44814	33124	34522
2276	0	41007	38597	34365	38367
2277	0	30506	34879	37147	27598
2278	0	28629	37059	31861	26868
2279	0	33002	40440	39345	34426
2280	0	39614	27435	32984	30348
2281	0	38903	25532	26083	29017
2282	0	32316	36356	42566	36592
2283	0	40143	33961	28876	37680
2284	0	41357	31203	42599	37501
2285	0	26837	32312	33161	29496
2286	0	31388	35652	40825	32966
2287	0	30347	29196	41120	31499
2288	0	43375	26077	36306	38818
2289	0	44554	41062	39205	37061
2290	0	37776	27663	26320	44793
2291	0	41814	36483	33127	35508
2292	0	34890	33352	28224	34855
2293	0	25082	38078	26808	34260
2294	0	26518	25201	41093	32048
2295	0	41906	44123	41381	34835
2296	0	44979	28781	26906	42777
2297	0	39257	27056	41505	35716
2298	0	25841	27570	38385	43180
2299	0	28836	25122	27922	41727
2300	0	31502	33321	27856	41054
2301	0	44455	26241	43533	40190
2302	0	27808	31074	31592	27875
2303	0	40641	32914	36669	44002
2304	0	42821	43876	30232	44846
2305	0	41194	32637	32335	28524
2306	0	28664	37380	42589	35726
2307	0	31925	28008	39534	43688
2308	0	37349	26994	43041	27846
2309	0	36128	26623	34876	30990
2310	0	42828	28828	44345	41501
2311	0	39258	25596	41641	29378
2312	0	36126	28828	41783	30782
2313	0	27312	27985	33564	42606
2314	0	30592	39721	31051	28373
2315	0	27498	37766	40296	26595
2316	0	38262	33568	29662	33932
2317	0	33692	37189	38967	27054
2318	0	32714	44857	43039	37277
2319	0	35115	35803	29989	36949
2320	0	26908	43875	42512	36135
2321	0	29022	38160	28203	34877
2322	0	41160	40852	27177	31254
2323	0	25792	41046	36155	28792
2324	0	34588	41869	29361	43021
2325	0	40141	28427	29007	37326
2326	0	25218	43284	30430	42956
2327	0	30022	41029	26982	43528
2328	0	34665	38679	36822	40605
2329	0	37334	37620	35365	44117
2330	0	43647	30752	42661	27168
2331	0	31269	37796	29185	29008
2332	0	30343	41502	31660	35123
2333	0	30042	25129	30947	42857
2334	0	25212	33322	42123	44046
2335	0	32929	27577	37647	39549
2336	0	44088	37758	27353	34026
2337	0	34685	40740	41751	37916
2338	0	30922	36872	26188	39289
2339	0	29528	40872	36673	36565
2340	0	26979	41412	37048	29099
2341	0	36314	27987	42043	36662
2342	0	37453	35002	33490	41842
2343	0	37480	34351	30742	39428
2344	0	38058	41281	28428	40401
2345	0	25766	38184	35540	43474
2346	0	26843	37676	43663	34842
2347	0	40681	42263	39966	43887
2348	0	26304	33352	43701	35362
2349	0	26334	38597	26984	44891
2350	0	35245	29193	38707	38428
2351	0	36493	25981	25608	31241
2352	0	39414	31425	43296	40118
2353	0	42281	33499	33571	35731
2354	0	43825	38304	32026	39467
2355	0	33841	44348	31173	41967
2356	0	32714	36356	27416	28248
2357	0	39346	35721	41283	36440
2358	0	29462	37027	37692	44525
2359	0	33483	36235	40074	40412
2360	0	32363	28732	33898	28644
2361	0	30811	31200	39518	32771
2362	0	42639	38534	36123	25450
2363	0	29795	27559	31482	37883
2364	0	40524	36877	28955	34740
2365	0	29041	29308	44894	26588
2366	0	33511	30742	31268	34170
2367	0	26237	36246	43819	43183
2368	0	28486	26804	33614	38914
2369	0	37707	38342	37686	39275
2370	0	27125	26932	34784	42131
2371	0	40060	29338	29580	42698
2372	0	27250	26207	39290	43946
2373	0	35570	26389	30762	43126
2374	0	38344	44974	41126	31167
2375	0	38089	28910	28589	37351
2376	0	27009	42533	35670	25204
2377	0	35966	39750	27435	39730
2378	0	36854	36581	32572	26027
2379	0	38823	33043	43491	43675
2380	0	40978	31784	36016	35294
2381	0	29878	36098	42859	27624
2382	0	32477	30356	28824	41497
2383	0	25407	39215	26206	41711
2384	0	37681	33048	44489	34846
2385	0	39650	33260	40576	29850
2386	0	41987	36861	28238	26548
2387	0	38691	44543	25527	44477
2388	0	31915	32250	26862	26116
2389	0	29191	42140	33845	33055
2390	0	28511	33226	36019	29690
2391	0	30235	44018	25156	44965
2392	0	42930	40446	44793	26163
2393	0	43846	39916	34240	37467
2394	0	25829	28714	39618	40445
2395	0	39411	31581	35159	28886
2396	0	35532	38515	30940	28742
2397	0	39289	41497	43356	26819
2398	0	40752	37718	28981	34929
2399	0	44964	42809	43845	27931
2400	0	36676	29257	25108	39110
2401	0	38464	36794	31948	41600
2402	0	36580	32108	37652	35147
2403	0	43124	28615	28612	42404
2404	0	30393	36532	29593	40099
2405	0	35421	26041	30033	36172
2406	0	26007	32724	35763	33875
2407	0	29076	43270	37754	38964
2408	0	28440	25487	39237	37221
2409	0	36390	30332	28152	44321
2410	0	39688	35204	30399	43134
2411	0	26912	30746	31849	34665
2412	0	40217	44629	28115	44227
2413	0	39547	30244	30567	39747
2414	0	42060	39464	28299	44006
2415	0	37589	30589	44747	44613
2416	0	33748	34503	28007	31296
2417	0	42876	35215	37639	28463
2418	0	38143	27956	36208	42656
2419	0	34381	25671	43881	30410
2420	0	28176	44826	34151	38738
2421	0	36952	43016	31565	32504
2422	0	28034	39018	36246	36810
2423	0	25353	37011	37588	27241
2424	0	27582	37314	25424	36488
2425	0	32370	26565	38671	41657
2426	0	32890	38855	34576	36128
2427	0	36581	32634	28854	37210
2428	0	30208	30893	25459	29714
2429	0	25574	28530	36391	32380
2430	0	30039	28820	34314	33704
2431	0	30660	28531	27755	37714
2432	0	33568	41812	33741	33417
2433	0	33571	28459	40489	29190
2434	0	31514	37300	43182	35045
2435	0	32230	43631	38092	39021
2436	0	44298	39346	39418	36248
2437	0	36321	34454	39383	33728
2438	0	29394	29919	28868	34110
2439	0	41708	38729	38961	27942
2440	0	29982	36773	28633	31057
2441	0	44102	28727	26450	39165
2442	0	37958	28431	41029	41870
2443	0	31406	32709	27138	35930
2444	0	33876	39210	32105	33556
2445	0	35214	30959	43029	28141
2446	0	38461	38369	25533	44603
2447	0	37542	39754	40063	25904
2448	0	44970	28622	42513	25368
2449	0	43069	34354	34869	38437
2450	0	42567	34716	32381	32183
2451	0	41954	44856	32520	42500
2452	0	25103	33587	27343	41741
2453	0	32393	42854	25896	39799
2454	0	37577	30193	33021	40758
2455	0	44039	36033	38916	28834
2456	0	33638	29380	39076	29852
2457	0	39168	32175	41169	37794
2458	0	39100	34485	40517	28682
2459	0	43513	35132	30749	44762
2460	0	43601	33926	31736	38563
2461	0	38293	30299	31897	39237
2462	0	39155	26532	43591	35933
2463	0	39537	30790	32112	42355
2464	0	37198	28840	29836	37205
2465	0	36650	37162	30811	36966
2466	0	25827	36803	35580	25030
2467	0	35138	28576	33721	25998
2468	0	33542	34271	31412	35384
2469	0	25346	26095	41393	40299
2470	0	26816	43936	41969	44871
2471	0	31060	33149	38670	41968
2472	0	27082	28043	31385	30335
2473	0	26638	32958	44769	39796
2474	0	36156	35581	27517	41725
2475	0	26739	41580	26985	37953
2476	0	37538	33754	31915	40563
2477	0	37742	32242	40114	26189
2478	0	40611	40547	33025	26332
2479	0	43918	29189	43190	39501
2480	0	33747	32396	40015	33387
2481	0	38024	36885	31335	37191
2482	0	42964	38207	44947	39983
2483	0	44449	34850	40297	25954
2484	0	32846	38387	35573	32145
2485	0	42695	26763	42333	30303
2486	0	40531	35871	28833	38991
2487	0	33283	36194	40512	25116
2488	0	36272	30551	28943	30987
2489	0	37231	26248	34266	36735
2490	0	27884	29323	43613	40510
2491	0	33051	36748	25682	31308
2492	0	35364	41828	39486	40990
2493	0	36969	27020	32661	41507
2494	0	34737	40522	34731	35976
2495	0	30175	29612	25373	25840
2496	0	25175	32471	38980	28009
2497	0	31096	34177	32628	30526
2498	0	35476	29272	25278	27928
2499	0	25627	25667	39320	34267
2500	0	38135	42256	35610	36456
2501	0	29821	39926	44336	39650
2502	0	29949	28103	31502	28773
2503	0	32915	39107	36066	30730
2504	0	29109	37541	42323	34675
2505	0	31408	39227	37625	37789
2506	0	25483	36168	34896	26797
2507	0	28440	40601	31457	41879
2508	0	31684	26703	31576	42687
2509	0	26001	33007	25108	32769
2510	0	37244	31350	28393	38996
2511	0	37270	36696	25738	25348
2512	0	29531	40717	26828	42438
2513	0	38757	28061	44497	34449
2514	0	38986	27196	41559	29156
2515	0	44938	26456	27801	40753
2516	0	34821	41472	27744	26390
2517	0	39951	36975	42320	42808
2518	0	39162	41323	25665	33013
2519	0	37999	37151	31564	35468
2520	0	27112	30411	32045	26999
2521	0	41273	42121	40239	32496
2522	0	32272	37084	37898	42224
2523	0	32389	41132	28285	31228
2524	0	33428	31507	36060	34052
2525	0	43513	35680	40924	29456
2526	0	41829	30471	41187	39096
2527	0	33219	37258	41494	32421
2528	0	43437	42853	27403	35205
2529	0	27373	26129	42272	44990
2530	0	43638	41158	26168	38165
2531	0	37267	39499	33457	43721
2532	0	44219	36595	40159	30745
2533	0	35247	31120	44987	44148
2534	0	31635	42591	35056	25060
2535	0	44886	30787	39379	33232
2536	0	39480	43695	32785	35495
2537	0	25971	36138	31890	39812
2538	0	42247	41610	35363	27175
2539	0	42205	34024	30792	27020
2540	0	27392	34276	34296	33662
2541	0	38215	34483	34320	32065
2542	0	25566	29273	35239	39851
2543	0	26121	43717	43782	32418
2544	0	31780	31333	28690	32148
2545	0	37427	27829	43840	29230
2546	0	30775	39525	35238	27597
2547	0	43344	36437	41701	40917
2548	0	34139	40994	37150	33019
2549	0	25522	34590	27913	31534
2550	0	30676	28947	26803	27606
2551	0	31013	41090	26205	30361
2552	0	28318	28580	33116	39567
2553	0	30764	33459	30034	44492
2554	0	32851	36031	41108	43077
2555	0	27838	27326	33501	41336
2556	0	32682	35471	37576	29119
2557	0	44586	35150	36440	28747
2558	0	35054	41908	42072	41520
2559	0	44518	34619	31051	42689
2560	0	36415	39292	28733	32701
2561	0	28136	30383	39438	40979
2562	0	44460	42205	30709	35369
2563	0	41428	44677	42691	42378
2564	0	40433	39576	30883	29000
2565	0	28622	27671	38373	26165
2566	0	44301	28249	32326	44809
2567	0	29088	28958	41315	42197
2568	0	41558	33654	35845	32717
2569	0	41450	29339	33848	28548
2570	0	37522	35209	26834	41796
2571	0	43760	39866	26917	33667
2572	0	26967	31850	35496	44566
2573	0	30969	37948	37547	41142
2574	0	32835	34195	41773	29047
2575	0	42451	32757	43572	40734
2576	0	37529	35672	39218	34463
2577	0	42592	37913	25656	36129
2578	0	27260	44581	25599	38987
2579	0	41800	37951	33056	44572
2580	0	43486	38749	27228	33082
2581	0	32890	31805	38474	34197
2582	0	37030	36126	38035	25486
2583	0	38473	28281	25669	28689
2584	0	42970	30016	37566	32744
2585	0	34221	33827	36593	39224
2586	0	28962	39749	32554	37300
2587	0	25981	33391	39919	38973
2588	0	29075	32074	40437	35188
2589	0	30691	37916	43122	29376
2590	0	25512	42331	44327	41321
2591	0	27274	30388	36304	28951
2592	0	41029	39728	41393	37618
2593	0	41610	34764	39196	30838
2594	0	40342	33233	41480	43707
2595	0	42193	41423	39174	28571
2596	0	44559	39965	42612	43794
2597	0	36639	39743	26647	35502
2598	0	30599	27631	30908	42327
2599	0	27815	30305	34496	25134
2600	0	30106	35767	27992	28718
2601	0	35247	31922	38257	29125
2602	0	39514	33006	29690	44900
2603	0	38492	25316	33926	44773
2604	0	34766	28984	27223	25622
2605	0	40170	26131	37003	43774
2606	0	29826	44933	29721	37773
2607	0	42262	33299	44673	41546
2608	0	44126	34026	28945	42282
2609	0	39412	41798	29000	44705
2610	0	31029	27019	26012	29214
2611	0	33065	32911	39723	44077
2612	0	38628	44038	42297	30392
2613	0	34635	35207	33044	35941
2614	0	38950	31759	33502	32178
2615	0	38689	43449	27581	35741
2616	0	36412	27100	28974	31686
2617	0	29522	28666	34374	38322
2618	0	33403	28546	25142	42895
2619	0	37493	31916	32011	26264
2620	0	43719	31233	26357	35823
2621	0	42975	43812	43242	25018
2622	0	29249	35986	27859	28241
2623	0	32834	38777	26123	32877
2624	0	25646	32193	38624	34701
2625	0	36486	27191	38063	27731
2626	0	27538	38403	27012	38021
2627	0	44510	35325	39899	30376
2628	0	27399	37785	40416	32082
2629	0	44100	43622	29013	42516
2630	0	28824	43062	36774	39010
2631	0	33186	33430	41936	41354
2632	0	35802	39347	38127	29519
2633	0	37696	43994	43471	31646
2634	0	25820	30629	38918	41744
2635	0	33064	35396	29130	36228
2636	0	44948	29793	42368	30059
2637	0	33481	34060	29981	26711
2638	0	36879	41059	33587	40399
2639	0	28859	29709	31675	28529
2640	0	25870	43887	34474	39772
2641	0	30598	40953	44207	32607
2642	0	35329	32782	26282	28574
2643	0	30611	39626	28498	35162
2644	0	41348	31622	39775	31137
2645	0	30769	25564	26792	29282
2646	0	29844	26070	33303	31509
2647	0	27177	40304	29753	25896
2648	0	34214	36349	34575	26337
2649	0	38974	33610	42353	29530
2650	0	34978	33762	30083	29633
2651	0	42318	44809	40710	39979
2652	0	43324	35796	35965	37895
2653	0	44982	29668	38456	42917
2654	0	42378	36570	42083	36710
2655	0	30318	25926	40542	31654
2656	0	35343	40794	35689	38841
2657	0	30153	40803	33582	41063
2658	0	33440	43551	37388	38084
2659	0	26525	35436	44243	28681
2660	0	26821	38589	44511	31076
2661	0	30776	44455	29971	38451
2662	0	27701	39131	29633	30023
2663	0	25209	27915	28180	32586
2664	0	27027	28509	43015	40375
2665	0	35677	28863	30732	26158
2666	0	27769	44791	27414	25478
2667	0	41560	34194	31524	25269
2668	0	27525	35602	26910	26078
2669	0	40131	44272	27635	30413
2670	0	39611	30406	27720	39233
2671	0	37527	29015	29255	38714
2672	0	34229	30854	27715	40372
2673	0	42338	37950	27693	37530
2674	0	43237	43263	28271	31833
2675	0	35639	43733	43289	32963
2676	0	28288	44728	40602	31695
2677	0	38461	27366	43458	38332
2678	0	36033	37715	36503	34419
2679	0	42182	37842	28878	43527
2680	0	38815	42953	40899	29647
2681	0	26887	28758	42029	32525
2682	0	29864	34300	34125	25950
2683	0	39517	44340	44206	35087
2684	0	39615	44036	27801	43552
2685	0	31121	25558	25239	26321
2686	0	36313	27043	34838	30063
2687	0	32005	33034	41418	44785
2688	0	36292	44309	32662	43233
2689	0	36565	30151	29355	34383
2690	0	38123	40325	30589	30532
2691	0	35177	34275	32406	29951
2692	0	38428	36358	25790	25206
2693	0	41173	32658	40525	35898
2694	0	30954	40927	41364	26170
2695	0	41367	25246	35391	43800
2696	0	37059	28525	34134	42405
2697	0	30872	38686	26611	37227
2698	0	34217	38055	43761	33178
2699	0	32124	41748	32605	27833
2700	0	26619	39790	32862	31124
2701	0	26840	42125	26324	42938
2702	0	26782	27591	38308	36080
2703	0	42388	42442	36756	36552
2704	0	44851	25237	31861	28753
2705	0	34410	38927	32821	39256
2706	0	36451	28268	43075	35844
2707	0	28957	44685	36380	37788
2708	0	39835	30260	38012	32997
2709	0	43257	38023	44671	29522
2710	0	32411	33573	37083	31351
2711	0	37713	44090	35698	36973
2712	0	42717	25653	37863	41729
2713	0	36664	38583	39626	31309
2714	0	41385	43586	29624	37586
2715	0	32250	32274	36426	40672
2716	0	40555	38643	35667	30652
2717	0	25214	27117	26391	26779
2718	0	41685	42911	41920	38961
2719	0	32237	35214	28480	43244
2720	0	43581	27449	38115	37928
2721	0	33107	36715	35561	32346
2722	0	27785	26527	44090	37944
2723	0	28715	33087	36141	36094
2724	0	36149	37595	31076	26758
2725	0	39577	31859	37444	36475
2726	0	41020	40790	36769	30134
2727	0	43196	26950	30188	29014
2728	0	38583	31703	28112	44471
2729	0	40746	38562	32286	35857
2730	0	27426	27778	43180	43302
2731	0	41787	38425	33711	30759
2732	0	43132	40942	31674	27881
2733	0	28644	36921	29919	33216
2734	0	37620	27870	39073	36510
2735	0	32838	29012	33955	40755
2736	0	40683	42764	44122	35026
2737	0	38914	42506	35286	37378
2738	0	28980	26345	25825	26673
2739	0	26501	34138	38851	35178
2740	0	36684	32131	31992	41201
2741	0	25702	31695	30002	42580
2742	0	29267	44091	44338	38192
2743	0	35946	42491	43670	35241
2744	0	35971	42522	29841	26397
2745	0	36264	40247	28991	41134
2746	0	26240	30180	29901	41232
2747	0	35791	40966	31756	42848
2748	0	30586	34722	29547	33909
2749	0	40582	42495	35881	35871
2750	0	27396	38762	36784	44880
2751	0	28019	33629	29484	28817
2752	0	29355	27949	33787	35455
2753	0	36930	25881	29228	28745
2754	0	31773	29026	26327	31666
2755	0	43263	38282	35363	33485
2756	0	41763	34293	42659	30436
2757	0	40484	32644	34901	39193
2758	0	25529	28344	41697	37469
2759	0	42227	32657	37392	33896
2760	0	34591	26279	33707	38670
2761	0	38744	28897	42757	27530
2762	0	42198	33407	42497	43904
2763	0	31730	43578	38840	40705
2764	0	35497	27830	37003	42017
2765	0	38029	26317	27393	32798
2766	0	43733	34796	29795	42779
2767	0	33090	30510	42756	37498
2768	0	41901	38183	29018	25600
2769	0	28702	27135	38384	28454
2770	0	34370	44889	31494	28854
2771	0	26991	34561	25488	36656
2772	0	25192	34524	34276	37289
2773	0	39146	34096	34998	34132
2774	0	44019	26879	38873	30027
2775	0	33013	38943	36278	42724
2776	0	31554	38689	31914	35056
2777	0	27205	32721	40053	39798
2778	0	27923	34138	43922	42555
2779	0	31928	40510	39437	37771
2780	0	43454	29173	36181	36415
2781	0	26128	35052	37320	34219
2782	0	37551	42130	26974	30649
2783	0	34314	35447	43816	44475
2784	0	31697	37734	28903	27686
2785	0	37649	43403	41029	33715
2786	0	30600	41802	41266	31653
2787	0	34577	40741	38333	30457
2788	0	36198	43029	26425	28614
2789	0	40184	25668	32576	33369
2790	0	32715	31710	28581	41054
2791	0	32845	30447	40953	31936
2792	0	29202	29339	42728	25932
2793	0	31724	29946	36127	38473
2794	0	36435	32313	33060	29665
2795	0	33662	35346	26304	36205
2796	0	38298	40625	40836	43156
2797	0	38057	36343	43586	28280
2798	0	33591	26483	34506	31784
2799	0	44908	29964	26913	44117
2800	0	37181	34727	44254	28775
2801	0	44858	31729	25354	35610
2802	0	44638	28297	27804	27823
2803	0	38413	44928	26706	36345
2804	0	25542	36647	38195	38181
2805	0	27934	28041	30781	27325
2806	0	35572	34469	36441	33547
2807	0	39669	34649	28778	40853
2808	0	34569	37547	44840	42033
2809	0	41201	41281	36233	29022
2810	0	40587	43174	37143	34227
2811	0	32972	41468	42211	30919
2812	0	28110	37784	43421	39464
2813	0	44357	31360	39890	38715
2814	0	27941	42693	36177	32018
2815	0	30976	37855	27139	43900
2816	0	43389	43771	35479	29303
2817	0	31737	42717	32445	28387
2818	0	28015	30079	29453	38003
2819	0	35070	29614	42916	33068
2820	0	42649	42668	40137	30192
2821	0	30935	38257	37689	41773
2822	0	36960	32949	36125	27711
2823	0	27214	28869	31344	32044
2824	0	34126	26778	31398	33719
2825	0	27227	26605	41183	39301
2826	0	40505	39708	36404	39992
2827	0	37011	38294	30000	29213
2828	0	31389	38166	31034	42232
2829	0	42382	42588	29797	37506
2830	0	43458	40996	28194	36996
2831	0	30710	28078	31784	43626
2832	0	36910	30914	28586	27576
2833	0	25671	27426	42397	37743
2834	0	30167	27474	36927	27257
2835	0	25129	40986	29020	27302
2836	0	38223	42007	43715	33363
2837	0	30544	39055	27358	43741
2838	0	42057	41130	29247	29764
2839	0	31412	35710	28798	25796
2840	0	37591	33110	38666	42002
2841	0	41317	36877	32233	34662
2842	0	32697	26267	30863	30408
2843	0	38202	42457	41545	25380
2844	0	32255	31901	41251	35093
2845	0	31443	37356	29413	40138
2846	0	40569	44239	36415	38312
2847	0	28922	37173	34070	36606
2848	0	34617	42352	42276	43217
2849	0	27002	33723	35205	34492
2850	0	27745	34176	31794	40968
2851	0	43331	39411	30855	44659
2852	0	28608	44004	35250	25353
2853	0	30889	35371	32269	41382
2854	0	44326	32124	39328	41812
2855	0	29470	44785	33277	30868
2856	0	29325	37670	43068	32948
2857	0	38964	26336	43134	34092
2858	0	29968	44507	39568	43810
2859	0	38763	34970	34181	44791
2860	0	35542	44552	35865	41945
2861	0	36560	26901	43504	29144
2862	0	31600	31124	37079	37511
2863	0	28594	30406	37249	29158
2864	0	38733	43347	37527	28444
2865	0	42067	34030	40960	42538
2866	0	30943	39150	26952	27745
2867	0	25163	37876	32459	35621
2868	0	29753	34544	27977	29975
2869	0	42119	27381	36408	28082
2870	0	43226	25151	39155	38449
2871	0	26353	42725	33719	26638
2872	0	27632	38168	44903	25743
2873	0	38367	38810	33284	43916
2874	0	27999	39731	42820	39392
2875	0	41033	43079	26689	43006
2876	0	44690	41017	34383	36346
2877	0	32652	28236	26715	42083
2878	0	32048	44533	28923	39024
2879	0	28872	31651	41180	40400
2880	0	42918	44144	26548	39332
2881	0	31817	43228	43030	40564
2882	0	42580	38223	25277	30183
2883	0	29826	31335	43822	38960
2884	0	32477	34841	40388	41572
2885	0	35282	26799	28021	41762
2886	0	28755	36574	34891	39871
2887	0	26730	32127	33827	31295
2888	0	33062	39893	42062	39792
2889	0	26095	25295	30013	39637
2890	0	28659	28089	33444	32373
2891	0	37771	26042	28241	28133
2892	0	40521	29389	41117	38841
2893	0	33820	27519	29429	41882
2894	0	41490	25613	44675	31180
2895	0	41685	40686	39969	29595
2896	0	41257	28963	27833	30242
2897	0	32178	25576	31706	43217
2898	0	44698	43588	29745	29455
2899	0	34490	30941	42994	42778
2900	0	35654	28642	32250	29054
2901	0	30354	41861	33658	44929
2902	0	26246	26287	38676	44287
2903	0	25634	31424	28030	37602
2904	0	42408	25461	42501	42333
2905	0	31552	28393	41810	35954
2906	0	34526	41449	31409	43594
2907	0	30943	34572	43261	38975
2908	0	25954	26134	40094	29380
2909	0	40137	28396	26203	43805
2910	0	33606	44710	30755	41500
2911	0	42147	44897	37063	26898
2912	0	39771	27389	30299	35554
2913	0	43134	31775	40271	33421
2914	0	25046	40405	37365	41354
2915	0	42664	36586	31213	34754
2916	0	36851	33623	26384	27142
2917	0	35694	29284	26346	44021
2918	0	29012	41440	34677	38645
2919	0	27714	38381	32636	25013
2920	0	38227	26237	30875	41925
2921	0	38327	42060	25012	40081
2922	0	32270	33644	39938	27911
2923	0	37875	37479	39379	44952
2924	0	38206	30143	29236	37415
2925	0	25886	26663	34301	43101
2926	0	27809	29290	26065	31376
2927	0	42086	31656	34356	33366
2928	0	43818	25952	37121	33388
2929	0	39145	33173	35586	26737
2930	0	41110	37653	41864	38513
2931	0	31723	36563	30814	26638
2932	0	37798	35040	38927	41051
2933	0	29392	27087	27526	31559
2934	0	32928	36636	35830	35554
2935	0	30382	27257	44125	37436
2936	0	43843	41229	36067	44865
2937	0	28426	32326	32282	38746
2938	0	37481	28758	30034	39895
2939	0	43132	28270	42630	40909
2940	0	41102	30583	44440	31696
2941	0	37704	25327	42760	32522
2942	0	44646	44601	32343	36923
2943	0	32660	31933	28490	44632
2944	0	43064	37317	39850	26031
2945	0	44290	40027	37384	39301
2946	0	32334	30290	43334	35425
2947	0	33649	35767	44264	36242
2948	0	37364	41333	38497	40919
2949	0	42340	32831	30968	32379
2950	0	32104	31252	39746	27301
2951	0	28058	42698	42566	38403
2952	0	38345	33522	37489	36532
2953	0	29261	43159	30063	35223
2954	0	35474	36250	37804	32011
2955	0	43513	40023	43903	41364
2956	0	28600	42655	41799	38549
2957	0	40546	38334	25897	27960
2958	0	33159	34754	32735	44294
2959	0	37622	43791	39312	41881
2960	0	37518	25974	35284	40842
2961	0	27335	32131	41796	39241
2962	0	37306	38126	40187	33092
2963	0	28959	43193	34760	34763
2964	0	44301	41779	31918	44137
2965	0	36021	27395	33340	36665
2966	0	36375	32926	26429	25590
2967	0	27677	40261	31151	39258
2968	0	40814	43254	38072	33811
2969	0	39242	36003	39076	41786
2970	0	29178	43923	26400	33801
2971	0	32720	32398	37629	34597
2972	0	36758	33097	39530	43724
2973	0	34348	41415	33926	28484
2974	0	31372	36796	34091	30020
2975	0	33430	36897	43462	36619
2976	0	25150	32485	43642	43403
2977	0	32523	43483	34783	32901
2978	0	28466	29085	43556	35605
2979	0	41096	25195	44645	27450
2980	0	25728	25783	40706	38190
2981	0	35483	44191	39802	35210
2982	0	37193	36660	28406	29653
2983	0	30946	41124	43022	31875
2984	0	43365	26731	26548	40591
2985	0	35128	30311	36460	32383
2986	0	25535	34182	27840	44361
2987	0	40116	44641	31999	26561
2988	0	25650	39062	30589	41944
2989	0	28804	44992	44604	41610
2990	0	41692	36501	26514	29574
2991	0	41735	31841	43816	27139
2992	0	41767	33666	26912	41789
2993	0	34631	42602	36933	36661
2994	0	39797	25420	43130	38645
2995	0	40956	42207	36509	44889
2996	0	36437	27195	40890	42513
2997	0	30581	28315	34158	26730
2998	0	26108	41803	26913	37516
2999	0	44335	30097	33653	35895
3000	0	32405	38488	39424	42084
3001	0	36926	38159	25907	36982
3002	0	28746	34203	37834	37235
3003	0	37325	25807	36265	25181
3004	0	40031	40623	30338	40766
3005	0	25579	27744	33739	39159
3006	0	30227	28343	34122	32442
3007	0	38815	39926	31295	39480
3008	0	37325	42255	35600	43519
3009	0	33498	30856	36014	30528
3010	0	25171	28754	41396	30502
3011	0	25185	31809	40028	41426
3012	0	26733	31545	44661	41037
3013	0	27184	44352	31439	41264
3014	0	33010	25320	35916	27473
3015	0	42701	30304	25968	26623
3016	0	28650	36233	35332	39698
3017	0	26243	30180	42658	36349
3018	0	36911	38468	38009	33416
3019	0	42626	25454	44333	39554
3020	0	44433	32247	27344	32831
3021	0	33450	28266	27688	34904
3022	0	37691	32801	30085	41479
3023	0	33497	26626	28043	37610
3024	0	39745	29667	32198	38961
3025	0	32443	31095	39652	34527
3026	0	30408	34293	30448	44981
3027	0	31695	44885	43755	44569
3028	0	25280	36203	38575	38180
3029	0	29135	36060	25804	38952
3030	0	28133	35641	44855	29426
3031	0	39080	31266	43059	38266
3032	0	35497	37537	35873	30047
3033	0	34130	39815	28412	39962
3034	0	39898	27111	38390	40478
3035	0	40851	31012	29932	32162
3036	0	43124	34001	36476	36536
3037	0	34828	43819	39829	36189
3038	0	39663	33282	44496	28364
3039	0	41048	33823	31580	41915
3040	0	25940	32178	25839	26897
3041	0	38686	29515	40040	26340
3042	0	44049	38017	31929	28974
3043	0	29852	27262	38567	34180
3044	0	38825	26995	35501	26325
3045	0	42326	27440	29803	39074
3046	0	42121	40616	26849	27866
3047	0	25242	33265	39484	32415
3048	0	37127	35765	25813	43429
3049	0	39511	30526	26820	25605
3050	0	34140	39350	32351	35615
3051	0	34134	27335	35723	35119
3052	0	29780	29641	42572	39803
3053	0	39269	41678	36520	43492
3054	0	43984	38768	32128	33237
3055	0	39892	29302	41610	32606
3056	0	35467	25621	34763	39671
3057	0	25145	30972	44558	36555
3058	0	35857	42248	32334	25070
3059	0	30882	32311	29107	38561
3060	0	29935	30210	31213	28746
3061	0	26865	39270	43734	35164
3062	0	38923	32881	25576	36454
3063	0	44676	44432	27567	33973
3064	0	30712	33934	43242	36860
3065	0	26461	36851	44005	26911
3066	0	37125	26293	25579	36876
3067	0	30977	42933	25445	39569
3068	0	32123	33171	39547	30895
3069	0	39858	32843	35397	44512
3070	0	41987	38596	42762	28031
3071	0	29172	41029	28592	28484
3072	0	34283	26322	44840	38662
3073	0	44692	41981	28346	25790
3074	0	27099	29826	25065	27216
3075	0	39449	37945	38106	32874
3076	0	25053	40194	34551	31388
3077	0	25824	29157	40657	39797
3078	0	25262	35230	27649	30624
3079	0	39040	28592	39944	39161
3080	0	33331	27299	30692	42252
3081	0	37130	32617	33554	30174
3082	0	36955	43042	32386	42565
3083	0	27439	38320	33035	31092
3084	0	31472	31206	39012	31777
3085	0	41484	41589	30858	25988
3086	0	34151	25772	39737	34710
3087	0	30558	27495	40189	38010
3088	0	34657	44838	36366	36890
3089	0	32265	38375	29285	43712
3090	0	42761	29602	32970	28122
3091	0	27681	43411	40817	32831
3092	0	25252	29205	28920	44902
3093	0	44505	44969	31914	40489
3094	0	32666	30908	31570	41444
3095	0	41696	38928	31779	39430
3096	0	37269	42029	33527	38882
3097	0	37638	31582	33033	27052
3098	0	36483	40677	36118	36261
3099	0	26550	42336	42695	41615
3100	0	25940	30811	31221	31134
3101	0	38314	30840	44381	32987
3102	0	25028	34442	43646	31124
3103	0	40396	29167	31527	41016
3104	0	25610	36266	36725	39687
3105	0	25847	28761	34957	27578
3106	0	37844	42496	32233	34582
3107	0	30297	42880	33201	32775
3108	0	32331	38643	35446	35952
3109	0	33138	38921	33102	40263
3110	0	44895	28649	25542	26478
3111	0	37339	28980	42535	30033
3112	0	35905	27150	34562	37912
3113	0	36918	34513	39394	30597
3114	0	42544	30031	34664	44884
3115	0	26554	34484	39670	44407
3116	0	27358	43541	38209	32539
3117	0	25348	34830	39031	32573
3118	0	40770	39918	41262	43752
3119	0	30653	36154	33913	28295
3120	0	35056	43040	43434	39584
3121	0	33107	39750	25054	26040
3122	0	38333	34381	25610	37400
3123	0	44310	26365	27660	34652
3124	0	27330	29642	43379	28293
3125	0	37357	28416	27536	27565
3126	0	30720	38920	44344	26932
3127	0	38800	31479	39352	26621
3128	0	27719	26772	36221	40244
3129	0	34506	34695	28611	39166
3130	0	26497	28330	31523	25103
3131	0	34152	25229	29810	43010
3132	0	33599	33970	44089	35616
3133	0	42068	29880	34213	32341
3134	0	30668	38769	28790	36022
3135	0	43158	44056	42182	28318
3136	0	34053	33723	40400	44059
3137	0	41883	41270	36196	25952
3138	0	41167	32536	40694	35813
3139	0	32491	39482	32866	35135
3140	0	34211	36949	40777	25465
3141	0	37098	31743	29506	37313
3142	0	38864	34803	40945	25098
3143	0	44085	36425	37376	34819
3144	0	31145	32241	43744	27172
3145	0	26809	44485	33481	25156
3146	0	37943	26891	38013	41471
3147	0	38538	27786	36843	35332
3148	0	26496	43876	42009	31267
3149	0	27526	26985	44823	29421
3150	0	37801	39318	38885	34120
3151	0	25537	40167	39340	40192
3152	0	30849	36852	30806	25268
3153	0	42754	38828	29075	41926
3154	0	34730	40524	32127	31148
3155	0	25198	43940	30531	30554
3156	0	27786	26517	36990	25745
3157	0	25370	38963	33470	39789
3158	0	29325	42913	27934	39440
3159	0	36506	43481	38604	27502
3160	0	33278	36071	28574	38786
3161	0	41873	37578	41183	39129
3162	0	43481	44843	30226	39154
3163	0	44615	26846	33103	37084
3164	0	43851	28062	37912	36553
3165	0	28050	34061	25062	41864
3166	0	40220	39911	36649	33159
3167	0	39073	38169	42242	27631
3168	0	44069	37764	29930	30334
3169	0	44331	42014	34439	29968
3170	0	42829	27268	38270	25572
3171	0	37100	37915	32765	35981
3172	0	25529	37678	36266	25862
3173	0	33413	28212	35252	44221
3174	0	33276	39876	35572	32258
3175	0	40990	28292	32989	44008
3176	0	35686	33304	34806	35035
3177	0	25607	44432	25085	36189
3178	0	43405	34933	43527	32882
3179	0	33241	35905	34518	42466
3180	0	27318	31856	40431	31303
3181	0	27932	26673	44242	26301
3182	0	36475	37011	30966	39644
3183	0	44964	37618	34581	34756
3184	0	32194	38894	29456	25663
3185	0	32165	43139	28268	36508
3186	0	42850	28121	33265	28357
3187	0	35403	41477	33369	26931
3188	0	34627	33332	40056	42612
3189	0	39806	29620	34000	29615
3190	0	26806	33771	37807	44077
3191	0	28995	35627	42106	30087
3192	0	37553	43160	26881	39892
3193	0	36790	28844	38524	37304
3194	0	40370	41734	39023	42086
3195	0	35100	29670	38299	33775
3196	0	42925	34768	38441	40733
3197	0	40888	30817	25076	29990
3198	0	32800	44299	38873	30910
3199	0	40470	33170	42849	36462
3200	0	40635	25908	44563	37161
3201	0	33832	36068	42863	35027
3202	0	29334	39142	34629	28768
3203	0	25084	25406	43164	27517
3204	0	32723	31170	28183	28686
3205	0	36132	35366	38662	41206
3206	0	44263	25356	41986	27756
3207	0	33930	37960	27571	40581
3208	0	37299	25525	26571	38754
3209	0	27436	26368	33963	30351
3210	0	29223	41456	28628	32726
3211	0	32422	40332	37965	40911
3212	0	43017	25408	42327	39585
3213	0	40555	42228	25059	26294
3214	0	44224	36868	44995	40202
3215	0	31090	42465	35924	33963
3216	0	44908	35691	42048	43686
3217	0	25055	42222	35892	43942
3218	0	44716	36555	26983	37876
3219	0	31231	32088	29247	38148
3220	0	35297	37575	36573	41508
3221	0	38739	25715	35400	36525
3222	0	27751	30626	39502	25026
3223	0	29404	37596	44834	39502
3224	0	29551	34588	36121	41094
3225	0	36257	30001	41305	31689
3226	0	32074	42589	43873	36495
3227	0	39741	40586	30402	26445
3228	0	39414	41738	43821	36682
3229	0	29744	27922	38795	33185
3230	0	27625	25085	27518	39156
3231	0	39968	25903	30842	26586
3232	0	37757	25268	30490	33100
3233	0	44591	38658	31994	37403
3234	0	31100	27467	30917	29368
3235	0	31250	36944	28903	42396
3236	0	44463	26524	25696	29232
3237	0	27490	34549	28049	38279
3238	0	26308	42220	26425	27303
3239	0	42630	38840	35815	38571
3240	0	29499	28359	38477	37776
3241	0	32652	40045	33172	30647
3242	0	34578	26950	34862	32696
3243	0	30052	35930	42199	32316
3244	0	42813	39427	27025	44591
3245	0	42398	28987	40431	31197
3246	0	31859	32809	38550	28934
3247	0	28770	26600	38290	25148
3248	0	41328	41246	41183	27456
3249	0	42311	36589	33197	32719
3250	0	42643	29748	39439	36053
3251	0	33656	25941	26381	28513
3252	0	33314	43123	27750	43776
3253	0	28268	25671	35707	36916
3254	0	29540	34910	41541	44766
3255	0	28413	42604	34749	43422
3256	0	26681	42779	36423	28795
3257	0	39891	39136	34301	31331
3258	0	44583	34227	39474	29332
3259	0	30428	28573	25624	25581
3260	0	28564	35278	30260	39622
3261	0	44043	31342	26155	40403
3262	0	26245	27343	37810	43374
3263	0	27675	44565	42668	44358
3264	0	44750	28481	29292	28439
3265	0	35849	31722	38264	38841
3266	0	28311	25844	34598	34142
3267	0	40970	29072	36880	41221
3268	0	29719	41781	34135	28305
3269	0	32026	29675	38130	28164
3270	0	25149	35423	36090	35968
3271	0	31517	25193	32638	36300
3272	0	33835	34176	36480	32982
3273	0	37802	26478	38679	29991
3274	0	31450	28901	27064	33489
3275	0	29645	27192	25566	25268
3276	0	36759	31044	29784	32089
3277	0	44344	27644	35381	41553
3278	0	39612	42329	29285	40938
3279	0	29797	34954	30335	40605
3280	0	41913	43401	32972	32301
3281	0	28380	41840	29665	41712
3282	0	26029	35842	43698	39080
3283	0	35974	32828	31667	29358
3284	0	29495	30875	28968	31851
3285	0	27648	44086	30889	28365
3286	0	31197	27228	38679	28033
3287	0	32085	33743	38707	44263
3288	0	34216	25216	25110	44608
3289	0	31807	37363	35621	35808
3290	0	43973	36955	41298	26881
3291	0	30903	36034	31271	44212
3292	0	38913	26398	36649	39266
3293	0	39975	33976	31091	27574
3294	0	32555	33639	32744	30778
3295	0	36428	33483	27983	39370
3296	0	29431	30189	26394	25805
3297	0	25915	28954	27868	43836
3298	0	32820	39177	33241	28028
3299	0	26172	31010	37425	28541
3300	0	30379	43836	33147	35365
3301	0	43196	41548	36391	32849
3302	0	42830	32144	44678	28100
3303	0	29048	31358	31287	26052
3304	0	34023	29687	35440	29472
3305	0	42271	39235	35086	34232
3306	0	31897	40845	39648	27448
3307	0	37358	40078	43194	42752
3308	0	28629	36503	33589	44287
3309	0	43264	25486	37696	34100
3310	0	36531	44735	26190	33493
3311	0	42902	44937	44825	32376
3312	0	37022	29557	33595	40448
3313	0	35963	42914	28982	31187
3314	0	28646	43504	25374	40334
3315	0	38584	40664	35704	37984
3316	0	36296	27379	29008	30267
3317	0	28512	42541	34742	40025
3318	0	41489	35720	27156	29462
3319	0	40904	35082	31035	27107
3320	0	33483	38805	39802	26768
3321	0	39025	28792	41180	34478
3322	0	38400	33641	44815	41122
3323	0	44779	40971	28068	25275
3324	0	38536	35571	35168	43495
3325	0	43064	33327	32030	44178
3326	0	44753	33726	33458	31371
3327	0	31658	32616	37693	33399
3328	0	32583	42946	27876	43439
3329	0	44158	36727	36329	29912
3330	0	32917	30331	32885	31273
3331	0	37175	43097	42153	44201
3332	0	32098	27932	30525	44278
3333	0	27948	40381	26936	28263
3334	0	30423	35675	44596	30697
3335	0	34311	37972	33185	27835
3336	0	30302	34421	28495	40739
3337	0	28306	30587	28116	43595
3338	0	31125	34585	40321	44244
3339	0	26654	28644	31582	29709
3340	0	44896	43195	43606	41196
3341	0	41199	28399	39455	39737
3342	0	36175	29785	36663	34421
3343	0	44055	30222	39996	32841
3344	0	30924	32522	41722	28183
3345	0	44498	31987	25413	40300
3346	0	42080	27646	28172	38203
3347	0	36581	25728	38361	32266
3348	0	38229	42598	27350	25315
3349	0	25653	30721	37665	44827
3350	0	44652	28854	26578	41258
3351	0	26611	37812	29235	44696
3352	0	32042	35543	26157	26565
3353	0	27018	27541	27928	41695
3354	0	39315	25209	37287	44955
3355	0	41935	29322	41513	39549
3356	0	44186	36635	44946	35278
3357	0	43720	29999	34869	32254
3358	0	34406	32356	42533	39373
3359	0	39169	27812	38076	32301
3360	0	39640	43831	35923	27407
3361	0	35801	39003	38216	37197
3362	0	26273	33034	26421	31424
3363	0	26027	34667	27796	42835
3364	0	41289	41977	36791	37970
3365	0	43761	31646	38138	25509
3366	0	41639	41603	36458	40406
3367	0	34884	26896	39976	26993
3368	0	29678	29372	40091	33140
3369	0	32341	32091	39783	28652
3370	0	35856	32227	34603	42134
3371	0	35303	44509	39622	40745
3372	0	31545	40803	36150	44994
3373	0	36951	35273	26704	33722
3374	0	41833	39322	27609	43888
3375	0	42372	32386	27871	43878
3376	0	28672	29465	26354	35218
3377	0	41632	39619	36745	32259
3378	0	29775	34604	27620	43390
3379	0	38554	42984	43330	37000
3380	0	33083	29909	44095	40538
3381	0	38080	31229	39995	25254
3382	0	31714	34706	31314	43563
3383	0	41492	26478	28153	37272
3384	0	39499	25682	30284	26866
3385	0	28335	37912	35273	29654
3386	0	27210	25978	38122	42123
3387	0	28727	34981	43560	33011
3388	0	28376	44801	31257	29690
3389	0	40260	35577	26843	29954
3390	0	39412	35169	38449	30674
3391	0	27155	39504	35022	28005
3392	0	28007	33184	39754	25299
3393	0	41447	35605	43677	26206
3394	0	32003	26823	43330	37547
3395	0	34766	30129	42449	43839
3396	0	44008	30759	38698	33627
3397	0	39059	36819	28789	30182
3398	0	34468	37013	29798	35759
3399	0	29472	27391	42673	29048
3400	0	36238	31410	33396	42668
3401	0	36855	27176	41905	31811
3402	0	32020	34814	26041	39534
3403	0	43371	42285	31347	29343
3404	0	29927	28400	42248	27927
3405	0	34398	44738	25676	42185
3406	0	30334	28835	26060	25131
3407	0	43884	37065	31440	26476
3408	0	35674	32465	34003	40590
3409	0	41820	38340	28537	28550
3410	0	32466	28965	27780	26278
3411	0	38661	43877	43084	28580
3412	0	35511	35285	35177	30946
3413	0	39417	29994	41270	31145
3414	0	35929	43586	33056	28774
3415	0	28413	26393	34232	40043
3416	0	25117	29506	37737	38954
3417	0	40964	33604	29712	37520
3418	0	36637	27474	28333	34272
3419	0	31797	37767	30656	38668
3420	0	44254	39293	25047	28761
3421	0	39918	26431	39745	28298
3422	0	25187	36759	36765	25858
3423	0	35285	32755	31475	31275
3424	0	32358	28031	33629	27397
3425	0	42989	40666	30768	38373
3426	0	34250	29822	28830	27355
3427	0	27713	27907	37501	33106
3428	0	42262	27796	37034	35918
3429	0	36704	40617	38994	28500
3430	0	30752	28059	38981	44522
3431	0	41552	25195	30847	34715
3432	0	29527	32345	35945	43671
3433	0	28411	27735	26605	26989
3434	0	41948	35170	41681	32706
3435	0	31113	38828	44414	31348
3436	0	36593	44783	28594	27572
3437	0	29873	44955	34326	41905
3438	0	39015	25417	27756	41995
3439	0	38048	44705	28261	30134
3440	0	29966	40261	38820	37953
3441	0	28977	27133	26003	43334
3442	0	43489	32373	28361	32968
3443	0	34022	29111	43365	27969
3444	0	37504	33805	36702	31029
3445	0	31396	33120	41959	26544
3446	0	30451	44215	35470	30207
3447	0	30182	37574	26705	40135
3448	0	43543	38211	42618	34224
3449	0	40336	34368	40237	43306
3450	0	34900	40588	33878	33767
3451	0	30297	43222	34965	44540
3452	0	35204	41036	40765	33081
3453	0	27093	30618	36551	32206
3454	0	39496	30098	40704	39044
3455	0	28477	29204	31660	31367
3456	0	41844	44087	39919	30620
3457	0	33225	44702	29055	43497
3458	0	33332	41590	36115	30554
3459	0	38830	28685	34866	36326
3460	0	28377	38681	29324	27806
3461	0	34417	44598	26038	26820
3462	0	27957	31775	29215	33066
3463	0	29323	26153	41103	25755
3464	0	40647	27763	29424	30224
3465	0	25824	35378	39786	41486
3466	0	43968	32304	39063	37491
3467	0	25200	43027	28165	42242
3468	0	27163	30896	26762	30867
3469	0	27166	36551	30025	29399
3470	0	44460	36692	26144	35738
3471	0	31783	29103	44169	25042
3472	0	31506	27220	30334	35965
3473	0	37866	27947	34877	27298
3474	0	41933	43634	28509	36975
3475	0	40938	26890	34747	33105
3476	0	35287	29686	33875	27837
3477	0	33707	37532	34344	26475
3478	0	35114	38384	38754	25881
3479	0	27707	39768	41620	26614
3480	0	25347	36857	30747	39721
3481	0	25457	42347	38393	26908
3482	0	27503	25094	42903	44967
3483	0	28670	42944	32050	32501
3484	0	44973	28711	36577	37719
3485	0	39374	36287	33274	43495
3486	0	35333	35184	38661	35806
3487	0	43008	40365	33108	41901
3488	0	41944	44907	27732	28171
3489	0	35925	35375	34578	35953
3490	0	38262	40550	27624	30684
3491	0	31231	28495	33376	44055
3492	0	39563	34229	36531	30360
3493	0	35372	42074	33757	34894
3494	0	37839	30526	39821	26969
3495	0	32036	25062	25837	41627
3496	0	34037	31863	43972	36915
3497	0	26975	35941	28918	39723
3498	0	32596	39236	25089	32831
3499	0	43051	39635	25880	36511
3500	0	28797	34376	42023	37976
3501	0	30430	30218	37768	29900
3502	0	29393	44786	30741	37440
3503	0	27437	33857	39689	40242
3504	0	43382	42728	36149	39795
3505	0	31403	37328	33668	33104
3506	0	31148	26082	29304	44905
3507	0	34960	37443	33283	31905
3508	0	33303	25724	30017	33006
3509	0	41089	34724	37652	41970
3510	0	32279	28936	37672	34661
3511	0	42594	32990	25151	39075
3512	0	34683	38218	27687	25395
3513	0	39682	36043	31464	38810
3514	0	26105	40015	30413	31362
3515	0	33185	36800	43118	28407
3516	0	26958	38118	29751	34058
3517	0	43540	44758	32160	41158
3518	0	31387	39574	36376	37792
3519	0	31027	35786	40108	42482
3520	0	31716	44792	30010	38706
3521	0	27860	43561	40211	43532
3522	0	25883	29823	43947	41105
3523	0	37011	44678	44138	35190
3524	0	35707	27595	36962	37842
3525	0	43665	25111	33109	25312
3526	0	28203	35116	33119	36568
3527	0	43377	34605	36353	29148
3528	0	27555	42443	35930	43944
3529	0	31199	37518	33562	28513
3530	0	42150	31709	26019	44239
3531	0	32603	31476	26632	32685
3532	0	33043	34889	44705	37329
3533	0	27646	39286	43964	37294
3534	0	38411	27583	31912	38374
3535	0	25444	40585	43733	43934
3536	0	35184	44197	39659	39041
3537	0	30632	33558	41618	28715
3538	0	35828	40949	37119	44516
3539	0	39646	33561	43484	32453
3540	0	42392	37478	33361	37893
3541	0	27899	27552	25573	34394
3542	0	27615	28856	42976	25365
3543	0	26992	27139	28650	26004
3544	0	41959	28216	42750	25183
3545	0	26228	41739	33549	37193
3546	0	37305	41032	40110	31275
3547	0	26471	38096	31741	38882
3548	0	38620	26876	29650	40215
3549	0	26160	29016	35247	29005
3550	0	42216	40704	32367	34512
3551	0	40907	32816	32365	39444
3552	0	36765	43061	25510	32210
3553	0	28223	44360	33758	33128
3554	0	27692	37673	44437	29392
3555	0	44359	44085	39684	43503
3556	0	41681	25219	29521	33403
3557	0	25908	38386	30247	39724
3558	0	32353	42992	44312	35176
3559	0	41150	42303	28780	43268
3560	0	33157	38754	34454	43597
3561	0	34010	31220	25937	33211
3562	0	41118	43092	25451	33998
3563	0	42904	42988	37269	26027
3564	0	35675	43048	29861	37056
3565	0	42027	44292	36820	38157
3566	0	36136	44194	39607	29235
3567	0	28563	33415	34164	40641
3568	0	29451	42319	37563	32069
3569	0	32780	38167	38069	30981
3570	0	26319	39554	35497	35905
3571	0	32130	35166	29338	27807
3572	0	33795	27880	32274	36865
3573	0	36869	29389	31317	38633
3574	0	28396	34242	40327	40116
3575	0	35446	42514	40757	25048
3576	0	26605	37980	40787	27182
3577	0	41366	36392	43246	35758
3578	0	42148	31294	42427	32215
3579	0	30342	33048	37128	28061
3580	0	38717	41389	43579	30140
3581	0	29132	44584	27423	37989
3582	0	34254	31607	40980	29230
3583	0	35209	32061	28799	25848
3584	0	36641	42076	33048	41896
3585	0	41671	42399	40276	44104
3586	0	39214	25593	25108	40244
3587	0	35188	27857	44066	25394
3588	0	38557	40968	28561	41284
3589	0	37813	33943	42057	37885
3590	0	35750	32303	37244	30190
3591	0	42552	41157	41941	42830
3592	0	26437	39651	35912	32440
3593	0	31629	28838	42414	33202
3594	0	32812	31406	34898	31395
3595	0	42641	36214	31671	32156
3596	0	38674	30545	43164	33311
3597	0	26102	35601	40449	29633
3598	0	33453	33945	40109	30315
3599	0	42742	41248	31678	41325
3600	0	25970	37713	33870	29928
3601	0	32253	40829	34624	30009
3602	0	35571	42844	41450	41230
3603	0	36314	33227	29299	31593
3604	0	41122	44803	25951	37166
3605	0	27594	34492	31598	31358
3606	0	40972	25438	41952	37702
3607	0	43179	25157	28480	30346
3608	0	41906	32776	29970	26333
3609	0	29211	29480	41041	40988
3610	0	30934	40361	39940	44982
3611	0	32045	42845	37340	40330
3612	0	29938	44377	44569	43054
3613	0	38332	42446	28140	29348
3614	0	31390	31234	27119	38955
3615	0	35048	30751	34064	43065
3616	0	37577	32083	43085	44107
3617	0	42348	34847	42510	36510
3618	0	41130	36725	38920	37924
3619	0	31986	31049	31183	44062
3620	0	31656	29549	40554	35991
3621	0	28035	40984	34010	30563
3622	0	34371	36077	43303	31522
3623	0	32064	37878	29128	34562
3624	0	42811	28400	29990	31389
3625	0	28371	42155	40009	31836
3626	0	30841	38808	28059	35203
3627	0	29223	32757	37595	26567
3628	0	32472	37295	41652	44479
3629	0	40375	38103	37706	43935
3630	0	42204	39024	32224	27517
3631	0	29934	30830	43304	40964
3632	0	29290	34923	27551	42709
3633	0	33786	39798	42402	39797
3634	0	32229	41929	41842	38230
3635	0	26410	30727	40027	30208
3636	0	32944	26064	38295	36665
3637	0	25040	33503	44768	37606
3638	0	33181	33215	30094	37060
3639	0	34342	32355	42343	31360
3640	0	34945	34113	35972	38177
3641	0	25957	38938	30891	41163
3642	0	44263	36106	43915	26189
3643	0	31840	43044	36715	33007
3644	0	40217	40480	41024	31023
3645	0	29766	28756	36879	37399
3646	0	43955	28097	39658	44186
3647	0	31361	34193	42558	40827
3648	0	27528	38058	40353	29164
3649	0	38424	28436	29835	36846
3650	0	25356	36293	41746	36534
3651	0	33500	40080	44665	42955
3652	0	32187	42812	34794	25981
3653	0	32222	40667	27419	25259
3654	0	25667	30376	41626	27317
3655	0	40875	44779	30947	28862
3656	0	40807	35179	32016	33803
3657	0	37058	36672	44130	31579
3658	0	36854	33467	37164	25391
3659	0	40260	29857	34090	39676
3660	0	43854	40632	42006	29941
3661	0	42234	40220	39713	27908
3662	0	33075	25905	34302	30570
3663	0	27447	33901	43909	33188
3664	0	42087	43210	31971	34859
3665	0	34220	39206	36439	38495
3666	0	35469	34952	30997	34806
3667	0	32920	37488	41748	38169
3668	0	39085	31689	27397	27473
3669	0	43639	41377	44218	44620
3670	0	42151	39183	29939	30602
3671	0	32461	26901	33901	39759
3672	0	37162	34399	36620	40928
3673	0	38766	28825	26771	25564
3674	0	44693	36815	40622	29774
3675	0	32135	39130	44862	29552
3676	0	38053	31900	27374	29802
3677	0	37071	39594	36294	32518
3678	0	30268	34621	30263	29607
3679	0	40547	41890	26676	36490
3680	0	36616	27975	31552	41683
3681	0	41594	41724	34751	39855
3682	0	35225	28005	39871	36901
3683	0	33797	43700	35794	41669
3684	0	42659	36568	38435	26857
3685	0	31220	38584	37517	29229
3686	0	33655	36703	31737	40424
3687	0	34702	25915	28957	43072
3688	0	41255	27233	42462	27121
3689	0	26054	25395	37344	39166
3690	0	26731	37423	30753	35558
3691	0	43309	29570	33997	36626
3692	0	34430	26308	28602	28899
3693	0	28971	29173	40661	34150
3694	0	29724	26016	43963	30922
3695	0	27509	34391	42779	29748
3696	0	29626	36809	29340	38697
3697	0	29421	34863	32396	43258
3698	0	25502	42999	35091	36411
3699	0	39272	30514	28758	41299
3700	0	37784	39434	41082	25478
3701	0	27103	35609	27007	43361
3702	0	34918	34464	37365	34803
3703	0	37247	26037	30751	40058
3704	0	35412	25053	31419	31293
3705	0	30422	36547	28410	35782
3706	0	36888	32241	28649	26514
3707	0	33531	33056	44175	42959
3708	0	33269	32665	34982	31003
3709	0	42945	35243	29115	25741
3710	0	32869	25786	30284	39437
3711	0	41094	40668	39105	40584
3712	0	27381	37410	43365	34376
3713	0	26307	42484	41000	27696
3714	0	37637	34895	25422	29593
3715	0	31156	33830	44113	32600
3716	0	27374	28769	43138	41614
3717	0	29181	25431	40886	34513
3718	0	25272	41705	42303	40418
3719	0	37356	32993	44443	28107
3720	0	32009	43932	26844	40083
3721	0	42164	34390	29247	30567
3722	0	30231	25444	35916	43473
3723	0	27370	27258	37949	42984
3724	0	28261	27967	36023	37669
3725	0	33015	30364	35463	37435
3726	0	32549	38618	26725	30324
3727	0	38152	33840	35021	27897
3728	0	33456	44831	32111	27185
3729	0	28525	25127	27266	32765
3730	0	33032	33053	40623	28967
3731	0	40169	43090	44790	25401
3732	0	26870	40147	43378	35422
3733	0	37881	43034	29164	35281
3734	0	44732	41025	26449	42563
3735	0	31986	44613	41795	26093
3736	0	29117	33224	33609	30983
3737	0	34182	40762	34314	34589
3738	0	42174	43346	37685	42322
3739	0	38265	38579	39472	41189
3740	0	40376	31757	42314	26175
3741	0	32432	42438	40654	37625
3742	0	43866	36368	31168	44943
3743	0	35447	33275	29808	31436
3744	0	39329	40945	43910	39312
3745	0	29944	26374	41191	38791
3746	0	34717	42370	33511	26329
3747	0	42971	36881	27713	30100
3748	0	29598	38167	33933	38484
3749	0	37569	38279	41463	41684
3750	0	29502	29047	33563	42272
3751	0	26160	33811	31127	41599
