# OpenSignals Text File Format. Version 1					
"# {""00:07:80:65:E0:2A"": {""position"": 0, ""device"": ""biosignalsplux"", ""device name"": ""00:07:80:65:E0:2A"", ""device connection"": ""BTH00:07:80:65:E0:2A"", ""sampling rate"": 1000, ""resolution"": [16, 16, 16, 16], ""firmware version"": 775, ""comments"": """", ""keywords"": """", ""mode"": 2, ""sync interval"": 2, ""date"": ""2022-2-10"", ""time"": ""17:19:13.655"", ""channels"": [1, 2, 3, 4], ""sensor"": [""EMG"", ""EMG"", ""EDA"", ""ECG""], ""label"": [""CH1"", ""CH2"", ""CH3"", ""CH4""], ""column"": [""nSeq"", ""DI"", ""CH1"", ""CH2"", ""CH3"", ""CH4""], ""special"": [{""SpO2"": [80, 40, 5, 4, 3, 3]}, {""SpO2"": [80, 40, 5, 4, 3, 3]}, {""SpO2"": [80, 40, 5, 4, 3, 3]}, {""SpO2"": [80, 40, 5, 4, 3, 3]}, {""SpO2"": [80, 40, 5, 4, 3, 3]}, {""SpO2"": [80, 40, 5, 4, 3, 3]}, {""SpO2"": [80, 40, 5, 4, 3, 3]}, {""SpO2"": [80, 40, 5, 4, 3, 3]}], ""digital IO"": [0, 1], ""sleeve color"": [""dark_blue"", ""red"", ""yellow"", ""red""], ""convertedValues"": 0}}"					
# EndOfHeader					
1	1	34012	25261	44563	27766
2	1	30319	26921	44751	26666
3	1	33746	42424	25792	29413
4	1	31667	44418	37550	25933
5	1	44593	25580	33590	27722
6	1	29772	37734	31193	42340
7	1	31970	43763	30981	43910
8	1	36978	36674	39086	40312
9	1	41215	36165	44809	34268
10	1	44638	37141	29258	44358
11	1	30072	38709	43334	36218
12	0	42884	29926	26163	36221
13	0	29512	28522	31151	29367
14	0	32652	39815	36557	35342
15	0	43261	33011	35291	39858
16	0	36238	37330	39533	26770
17	0	31666	36366	43491	32670
18	0	32511	29784	43971	44958
19	0	40719	41694	41331	41256
20	0	33130	27500	27627	25285
21	0	44651	42409	28316	29547
22	0	26648	31546	26470	30504
23	0	41032	43720	40644	41687
24	0	43346	28892	38674	29938
25	0	40198	39104	29962	25136
26	0	29661	33444	37097	26426
27	0	40329	25683	44074	38716
28	0	41698	41362	39722	42095
29	0	33093	43668	39961	44291
30	0	40903	36043	32555	38872
31	0	26851	43470	33525	25366
32	0	44122	30952	27737	36219
33	0	31419	43469	31998	29730
34	0	44005	39226	37976	37241
35	0	38222	43560	42283	28278
36	0	30695	34998	39347	44279
37	0	28861	32721	27323	27130
38	0	32442	31252	28538	30053
39	0	31800	33197	40015	26901
40	0	25590	27050	37935	31134
41	0	43682	38391	40581	26454
42	0	31548	42803	30189	33410
43	0	36410	39398	36357	32891
44	0	44645	42586	31076	44123
45	0	28474	39543	38721	31456
46	0	40679	40554	39676	30796
47	0	28434	37443	37074	39034
48	0	33745	34871	39461	27164
49	0	25160	36784	39781	28848
50	0	44236	37115	28701	44032
51	0	39369	36181	25534	33470
52	0	42420	43602	28959	32764
53	0	32969	26717	28900	33368
54	0	39539	37591	42680	40907
55	0	36957	33323	38330	29861
56	0	35939	40548	25666	37963
57	0	36909	25379	39319	25177
58	0	27913	32612	27198	29925
59	0	42170	25774	42557	33736
60	0	41157	26793	31076	36376
61	0	35693	36028	36852	32820
62	0	39783	44495	26937	35924
63	0	31978	40697	31212	34926
64	0	36563	27765	41565	32380
65	0	27150	27596	29213	35400
66	0	30776	32784	26297	43864
67	0	28029	39373	35473	28251
68	0	32843	41246	31614	25578
69	0	38768	38343	43367	35992
70	0	25377	31492	37494	39118
71	0	37543	37137	30358	44393
72	0	40888	32814	33977	44204
73	0	43631	25253	41413	27128
74	0	39262	40291	33133	33138
75	0	27549	31950	43467	32430
76	0	33316	44642	44168	43869
77	0	32100	37606	28269	31602
78	0	41990	27825	40319	39123
79	0	29490	37031	44669	39353
80	0	33937	32748	40656	31963
81	0	38973	31433	35092	37749
82	0	26308	25993	43612	36170
83	0	43948	27441	36853	44848
84	0	43383	31394	30704	38636
85	0	26409	41286	35241	27087
86	0	27094	28493	33427	34874
87	0	37171	37687	34793	28342
88	0	34017	43126	44231	41486
89	0	29940	41786	39348	31849
90	0	28349	25737	41486	33283
91	0	36769	28610	40206	34532
92	0	30320	42589	36549	36387
93	0	25250	37011	43360	38373
94	0	26160	44601	25187	39921
95	0	36809	38867	25560	36164
96	0	25442	28697	39369	43958
97	0	37571	35869	25517	37815
98	0	42842	33925	35001	43368
99	0	31923	39909	32124	41911
100	0	25060	33151	43809	32451
101	0	34438	32086	35089	31639
102	0	39829	44371	34331	29789
103	0	44188	27994	32374	39549
104	0	29474	34671	32805	30142
105	0	32530	26494	27973	43302
106	0	32917	27754	33011	31819
107	0	44121	34356	39259	33380
108	0	34403	31803	42422	34615
109	0	25984	40085	27286	33023
110	0	27052	33579	36594	34964
111	0	37811	36536	40348	30403
112	0	29150	26523	36879	30608
113	0	42517	31456	34960	42290
114	0	31906	28170	30140	35166
115	0	26502	34780	32612	34328
116	0	39632	39510	38993	27596
117	0	29185	43097	44729	33749
118	0	25509	32193	40186	44335
119	0	37992	40417	25148	38049
120	0	41674	43498	44953	28402
121	0	32175	34607	25118	27785
122	0	37224	43961	37433	41090
123	0	30469	39358	40669	38014
124	0	28107	36908	36939	29323
125	0	31630	37417	40908	25692
126	0	27179	25012	41685	33007
127	0	35767	34190	25249	39336
128	0	42136	26953	34788	25393
129	0	30590	25467	42282	43139
130	0	31177	39189	36438	33912
131	0	27402	40068	43473	33748
132	0	42211	40926	33397	41475
133	0	43114	26943	28571	39409
134	0	26063	28243	43237	37631
135	0	42491	36353	29762	26455
136	0	38982	26658	41328	29149
137	0	28336	30701	25367	34391
138	0	32989	41240	29288	37304
139	0	34290	37357	31235	39842
140	0	35073	27144	31064	40763
141	0	33993	32318	32713	27515
142	0	34363	26237	27394	43106
143	0	28342	43217	30296	36150
144	0	28027	28253	35490	27793
145	0	41670	39264	28004	34455
146	0	30756	33051	40841	32291
147	0	36817	39238	28186	32971
148	0	29782	36902	35173	43263
149	0	31564	41969	33910	38507
150	0	26895	30516	36171	37871
151	0	35978	29208	34289	29603
152	0	36297	44016	25938	36240
153	0	38177	26510	42335	42588
154	0	26769	32544	42300	44142
155	0	41921	25986	27875	29536
156	0	36547	26418	38159	39088
157	0	28567	27736	31393	43397
158	0	40213	44785	27385	34666
159	0	35480	43029	29156	41643
160	0	30227	25007	33706	29232
161	0	35792	25710	36055	30283
162	0	38928	31175	43417	29158
163	0	31150	26095	43377	32161
164	0	25186	40257	34328	30366
165	0	29947	31997	39080	38201
166	0	32597	28747	32664	43161
167	0	42720	39292	43262	42295
168	0	36721	37902	38943	42546
169	0	31186	44595	31218	39774
170	0	29335	39450	38642	27312
171	0	29536	26254	33048	37682
172	0	27466	40222	43077	29657
173	0	41085	26890	40067	41198
174	0	40334	37236	26379	35839
175	0	25971	28187	39959	43602
176	0	39768	32680	35820	43219
177	0	36880	36438	40458	32083
178	0	30563	30845	28835	25874
179	0	27964	31651	39872	32649
180	0	32383	31709	31445	41819
181	0	28294	34987	32021	28565
182	0	27736	30216	41242	29566
183	0	31574	41452	40894	32955
184	0	44379	36049	26813	25530
185	0	39011	34415	25255	26640
186	0	25925	37972	32366	31359
187	0	35857	43165	26828	31813
188	0	42319	25880	28405	28872
189	0	42938	35945	25832	26703
190	0	44302	28749	44648	32334
191	0	27464	31910	30614	43965
192	0	26220	32396	44839	31271
193	0	36234	26956	28854	39229
194	0	41360	44305	31829	35946
195	0	36944	42518	26071	32814
196	0	27357	31785	42590	39972
197	0	41318	39915	35510	44162
198	0	31325	33860	43735	28919
199	0	32914	27449	39113	38685
200	0	29176	34213	29376	41125
201	0	39855	33043	31867	25676
202	0	26731	42035	26636	25657
203	0	27992	44552	29252	41589
204	0	39046	44273	40812	31137
205	0	26161	37594	40057	30922
206	0	26317	34907	35016	44559
207	0	30816	29749	29706	42382
208	0	39874	40059	39717	40935
209	0	34403	32608	35970	35566
210	0	25253	25831	28612	34825
211	0	32129	33979	33530	42129
212	0	36465	26059	25294	28934
213	0	27729	37270	34388	38783
214	0	42274	43964	37552	40273
215	0	44076	25887	39941	43248
216	0	34509	28283	29983	37980
217	0	29563	27024	25957	33413
218	0	26525	38992	42011	37426
219	0	27351	30628	34042	40380
220	0	31974	43356	25375	36785
221	0	41659	41982	41745	27986
222	0	37285	35743	31389	33893
223	0	33442	43001	39121	44370
224	0	44234	37183	43658	41418
225	0	44719	28679	32772	30554
226	0	40033	36752	26169	39045
227	0	25426	29696	37510	26629
228	0	25194	38587	27154	33481
229	0	44664	36359	38356	36929
230	0	33725	30171	42035	41050
231	0	41972	36097	39748	30976
232	0	29557	30662	42483	44711
233	0	25079	25685	28221	37818
234	0	31505	38393	25848	34673
235	0	29360	26685	38533	39711
236	0	42705	33163	41253	27475
237	0	44379	36062	43719	35411
238	0	30413	37672	37207	30585
239	0	42904	25245	43050	32873
240	0	25892	31743	25547	32857
241	0	32332	28105	28456	31319
242	0	40239	25314	37725	35373
243	0	31884	39729	34798	39957
244	0	28263	36365	32038	27699
245	0	42008	26192	36499	27828
246	0	37080	34469	28819	36384
247	0	39420	40908	33212	37869
248	0	40209	31658	42090	38525
249	0	41560	41136	28063	26015
250	0	35460	41804	42072	28000
251	0	28802	36301	30390	29594
252	0	44675	28515	29166	38810
253	0	34562	33243	28164	38139
254	0	31313	40691	43959	33411
255	0	25006	44298	42311	41232
256	0	38415	27977	37149	36589
257	0	40147	30283	37021	28806
258	0	31282	31246	25129	34971
259	0	33601	31993	36987	32481
260	0	29071	35899	31307	27782
261	0	37281	41050	34126	41969
262	0	25252	25437	38932	41869
263	0	29817	41319	44141	37275
264	0	42085	29005	42783	33097
265	0	42307	34745	25876	44161
266	0	25853	36966	30460	44695
267	0	42032	44397	42564	40257
268	0	37349	35327	44722	34663
269	0	29773	32160	43449	34889
270	0	43075	25468	42542	27861
271	0	30380	37178	28032	41019
272	0	35700	40939	35603	43118
273	0	44474	28388	35118	31991
274	0	26489	29046	38882	30320
275	0	44361	34603	30917	33562
276	0	43363	33268	26285	36753
277	0	42083	31679	29638	40968
278	0	32818	34431	27174	30557
279	0	38212	38110	35347	43871
280	0	42202	27439	37647	37811
281	0	27215	30652	37653	35159
282	0	44240	40104	36269	43160
283	0	37198	42815	33240	29302
284	0	34994	44886	34723	35985
285	0	44991	37694	32508	39545
286	0	35334	27756	31102	26350
287	0	30828	25584	42911	29541
288	0	35457	25089	35655	27128
289	0	30210	28961	28337	34178
290	0	40520	31666	38444	43747
291	0	42879	25449	42819	39061
292	0	37529	26671	27902	41128
293	0	37822	40091	32054	40535
294	0	38089	30053	28822	39684
295	0	31450	30568	29281	35126
296	0	26082	37508	29003	25309
297	0	34070	27078	41785	30681
298	0	40039	33510	42036	37252
299	0	30077	28345	26855	38132
300	0	35536	28175	30356	40817
301	0	26678	32911	38725	38072
302	0	25853	35733	30398	29141
303	0	31024	27582	25023	33246
304	0	26307	26487	31255	33781
305	0	43476	40334	44265	38070
306	0	39998	32813	31842	35423
307	0	30297	37337	41658	37027
308	0	27991	28128	40070	38128
309	0	32677	38189	28530	32825
310	0	25740	39307	31342	44888
311	0	38258	38901	32974	41877
312	0	43316	26094	34114	31628
313	0	44134	42324	34592	42543
314	0	41812	28117	41664	32775
315	0	28917	33818	38044	41422
316	0	40307	41177	43985	42391
317	0	38020	29974	33191	36783
318	0	26573	42766	39199	39083
319	0	27602	43510	34830	40925
320	0	27142	36432	25374	37745
321	0	44650	32868	30872	28441
322	0	34656	36955	41463	43221
323	0	40171	33082	25602	39646
324	0	33102	44997	27161	31654
325	0	31436	38436	43368	43086
326	0	36556	39773	25333	38693
327	0	37005	32786	43346	36532
328	0	34375	25112	37669	32263
329	0	42241	25533	25645	32950
330	0	29209	40659	42538	33951
331	0	31058	41800	41369	38859
332	0	30238	44335	32686	35125
333	0	42099	44035	37866	38487
334	0	43188	26728	35243	31418
335	0	35274	30870	29510	27851
336	0	42660	30546	28644	44451
337	0	31751	41285	35379	33957
338	0	25934	36074	40583	35265
339	0	33832	38272	34705	39450
340	0	43534	44841	36112	35584
341	0	25780	28450	43390	41838
342	0	33469	27548	25784	28968
343	0	32489	37435	32103	25128
344	0	42122	31283	43353	35079
345	0	38086	29677	31398	27456
346	0	25321	29749	31638	40511
347	0	27320	37230	27093	33171
348	0	28191	31715	39324	39796
349	0	26032	43137	25866	39564
350	0	37859	32521	40989	38252
351	0	44484	43629	34104	38357
352	0	43216	41404	43746	25879
353	0	33787	32185	31458	28011
354	0	43116	41859	44508	35025
355	0	35054	28901	34027	39930
356	0	29909	31189	38062	28910
357	0	31913	34082	31359	37624
358	0	31262	29613	40293	25028
359	0	43203	30038	30800	25739
360	0	40001	31878	40173	31588
361	0	39636	42039	43421	38343
362	0	26490	29664	38598	38466
363	0	40897	36127	27790	34215
364	0	35200	41506	30017	30446
365	0	40095	43049	25520	25106
366	0	40513	32390	39160	29102
367	0	28089	44973	27903	44620
368	0	33458	41981	25512	39313
369	0	31646	37947	35609	30639
370	0	42062	42229	32093	28601
371	0	28963	28134	38000	34569
372	0	26726	25552	36911	37178
373	0	43502	29131	31326	34174
374	0	28684	41611	30155	28435
375	0	41247	35596	43773	30964
376	0	36793	39830	27721	29972
377	0	26661	44540	43420	26492
378	0	26682	44716	43406	42786
379	0	44011	31399	44119	31935
380	0	40382	37686	29481	26748
381	0	28158	33223	28679	32631
382	0	38093	31840	44584	31239
383	0	27639	40010	37767	27261
384	0	42956	42653	37465	31962
385	0	36523	37597	25984	25224
386	0	38274	35093	42869	36892
387	0	43981	43051	25143	35908
388	0	33666	30557	36196	25980
389	0	34590	32816	34596	34068
390	0	40442	42160	36550	43203
391	0	36012	27215	38938	38618
392	0	26916	42982	32311	42213
393	0	26885	35575	31991	34911
394	0	26579	29445	39544	34925
395	0	28693	40935	29229	31459
396	0	40891	35664	38066	38279
397	0	27655	39004	40388	30273
398	0	37074	44452	25414	35727
399	0	33607	28282	28350	29289
400	0	33080	44801	36339	31313
401	0	29094	42002	25332	30350
402	0	42881	30913	25295	39935
403	0	39365	37785	26116	33252
404	0	26032	41709	42221	43345
405	0	35198	28766	33794	40692
406	0	38002	34973	32996	39502
407	0	38066	44895	37464	28657
408	0	36942	29172	29245	36170
409	0	36792	41751	27887	30165
410	0	41812	44593	29852	39811
411	0	44628	44485	36482	29243
412	0	30250	43299	42846	39632
413	0	29325	34583	40338	43536
414	0	25775	34830	39497	34673
415	0	43302	40445	43088	41601
416	0	36345	38237	37952	28974
417	0	29363	35550	34245	36991
418	0	35890	25733	32128	29590
419	0	38430	33139	29764	26602
420	0	25746	38177	44075	44278
421	0	37208	40313	39562	38189
422	0	29542	44165	31702	43657
423	0	31345	39003	27746	40406
424	0	26041	38469	31219	26120
425	0	25994	42522	38569	26882
426	0	28994	44547	44881	33751
427	0	26641	42483	41602	32295
428	0	36675	32188	41749	38269
429	0	36786	33052	39169	42989
430	0	41086	38705	31028	39946
431	0	27209	36357	34915	25634
432	0	41563	41174	32892	27399
433	0	29714	38186	39751	38132
434	0	29886	36339	44131	27608
435	0	32758	42675	30911	38407
436	0	29414	26883	37333	29613
437	0	28017	26212	29601	30773
438	0	39954	26569	44243	29864
439	0	33277	30623	33364	25670
440	0	26162	26871	26268	29073
441	0	25867	36765	25588	27592
442	0	34916	33355	38232	28789
443	0	30990	38065	41654	29812
444	0	36898	38387	25945	38235
445	0	44844	34950	33400	26541
446	0	26642	41373	35757	33181
447	0	31482	39096	36082	43834
448	0	41663	40220	31823	44900
449	0	34047	33872	25213	38497
450	0	26265	37981	41201	28413
451	0	37619	32323	33104	34093
452	0	30339	34419	33577	25230
453	0	32889	27030	44246	30417
454	0	35980	37021	40963	37725
455	0	26793	33418	38060	41626
456	0	32929	36128	41747	26598
457	0	40819	31149	44088	31031
458	0	37444	43708	31093	38630
459	0	42494	41192	31146	40216
460	0	32593	37619	42260	43448
461	0	41406	29879	26371	26150
462	0	36982	39744	41406	36634
463	0	34103	44310	40541	32876
464	0	44999	26378	35977	28320
465	0	40915	40357	31210	42881
466	0	28337	30793	29720	33872
467	0	25576	30366	42108	42012
468	0	44237	28824	29892	40952
469	0	36829	43678	37663	28953
470	0	32115	25890	32510	32557
471	0	30813	26545	29824	30325
472	0	44919	32499	26572	39658
473	0	27240	37759	28002	43664
474	0	25210	35043	37693	42656
475	0	38316	37677	26218	30945
476	0	32090	28802	26644	33702
477	0	44349	34032	26444	43222
478	0	38895	40660	33587	25454
479	0	44417	28092	35284	43171
480	0	43837	26165	42479	27791
481	0	39971	40631	37063	29981
482	0	43078	38527	39831	43570
483	0	30596	38670	31585	43619
484	0	26388	33754	33306	26481
485	0	36906	43770	36884	31543
486	0	28677	39343	28525	35191
487	0	35408	29245	41622	32330
488	0	38646	39333	32341	29872
489	0	38776	40670	31452	32252
490	0	43475	43948	27128	31017
491	0	30510	26223	27425	42861
492	0	36600	29333	31828	28340
493	0	35224	26841	41752	31387
494	0	39278	31292	30901	38854
495	0	34786	44549	39660	42694
496	0	42042	41060	37116	25342
497	0	37627	25030	31730	42948
498	0	38277	31865	43765	33894
499	0	34529	30747	40785	30938
500	0	40022	35314	32926	31987
501	0	29435	36330	29937	25707
502	0	26978	31060	37419	35946
503	0	44976	30269	41005	30909
504	0	44860	40085	25781	28706
505	0	34539	40755	43546	28390
506	0	28852	35045	38458	33425
507	0	35032	44853	44082	44558
508	0	31612	43733	37359	33017
509	0	37698	40407	28474	32329
510	0	25876	38899	32596	32517
511	0	27251	28010	44539	28814
512	0	33227	36528	42988	38831
513	0	43068	43852	27285	25511
514	0	26952	43549	26523	27506
515	0	38259	33752	39625	43218
516	0	43601	33452	31427	33538
517	0	33030	35173	43333	31872
518	0	33566	44442	33720	27877
519	0	26562	28404	34790	44208
520	0	36314	42661	34185	34020
521	0	40923	37975	30194	37477
522	0	26889	38535	29555	39481
523	0	43824	28507	29265	40104
524	0	43022	44375	33711	27223
525	0	28425	30033	36851	39381
526	0	30041	30190	28016	43302
527	0	35973	25469	36733	29818
528	0	35269	28044	42811	31034
529	0	41715	43544	44613	41343
530	0	38530	42057	36837	34887
531	0	26881	35395	27283	37975
532	0	35256	28723	26204	40514
533	0	44060	29108	28187	31417
534	0	41287	39264	26865	37388
535	0	31985	30637	25263	36715
536	0	44133	42225	44255	35148
537	0	34362	28270	35219	35874
538	0	29734	32581	41375	39030
539	0	26181	44645	44753	31390
540	0	31718	40621	40848	39047
541	0	37371	37485	26155	32856
542	0	27695	25200	29075	44484
543	0	41172	31405	32998	31006
544	0	39801	30549	33335	41852
545	0	41146	38340	31290	31289
546	0	30673	30668	34750	30428
547	0	42635	25620	40750	40591
548	0	39458	43976	29895	32250
549	0	31556	40721	41461	27015
550	0	40353	26697	44657	42881
551	0	29593	32461	39587	26528
552	0	43273	42160	36121	43189
553	0	30437	38638	38669	44355
554	0	44228	41316	29863	32176
555	0	37261	35422	38308	34514
556	0	40862	30253	41351	29982
557	0	43220	25466	41326	40658
558	0	43172	31120	36220	27375
559	0	29438	39056	34173	44791
560	0	27917	28772	44733	40132
561	0	31962	44128	32201	32160
562	0	31617	37638	39771	40623
563	0	38159	42423	40911	37270
564	0	35375	35918	28362	41995
565	0	34380	43778	42390	42682
566	0	32191	39137	26146	41334
567	0	42538	38008	35161	34523
568	0	31390	36437	42285	41006
569	0	34917	43888	34112	36875
570	0	35357	42183	31525	44838
571	0	33473	30321	32758	44605
572	0	44842	38340	29075	35586
573	0	26613	44787	37899	34587
574	0	43123	43742	25561	43156
575	0	37775	34502	36238	35940
576	0	27034	28051	35776	27072
577	0	44059	32006	39268	29013
578	0	40313	28306	32863	31580
579	0	37804	43282	31105	44703
580	0	26400	34201	26115	33468
581	0	31087	34923	41551	28981
582	0	38143	32848	32950	38971
583	0	42339	36302	26315	37146
584	0	26667	43747	41326	44015
585	0	36571	32776	32830	43977
586	0	26267	26904	37184	40866
587	0	36591	44478	33325	37494
588	0	36256	29489	29854	25397
589	0	29614	29154	39124	32485
590	0	26052	42432	33720	27911
591	0	31682	39638	32613	42439
592	0	36050	42978	37282	38907
593	0	36703	34093	32038	41927
594	0	34682	32460	40514	38329
595	0	26807	34420	25223	40278
596	0	28319	25544	37359	26159
597	0	34697	43946	38434	44268
598	0	27997	37063	26286	36368
599	0	27038	26012	26886	41736
600	0	37945	33751	28451	28315
601	0	37270	29790	37273	33815
602	0	41047	40974	25840	29839
603	0	37966	29049	41815	40888
604	0	34886	44403	29967	40401
605	0	39780	40526	35720	41071
606	0	32819	29583	31484	33737
607	0	29271	42663	38649	44931
608	0	38658	36612	43211	43329
609	0	27265	37376	33572	27271
610	0	26000	42223	39724	35433
611	0	26419	33967	39659	37541
612	0	38853	26583	35046	40157
613	0	39874	29183	30183	34904
614	0	32554	39258	25486	37961
615	0	39630	38967	41021	35282
616	0	43644	43438	30864	40710
617	0	30819	28759	25568	26768
618	0	39644	42683	38854	25586
619	0	38087	33818	32510	29748
620	0	37414	37106	35837	40097
621	0	31098	44836	36378	30650
622	0	44493	26513	36382	43308
623	0	26070	34657	32354	35780
624	0	29426	41237	38113	27193
625	0	29593	25952	26050	27203
626	0	38286	36540	43419	39144
627	0	38115	29044	35147	39314
628	0	35900	34524	27349	40834
629	0	29836	25187	28068	27571
630	0	40503	41498	33367	44778
631	0	42207	29885	44077	30656
632	0	29402	25413	32676	27952
633	0	27205	29094	29775	34797
634	0	36095	33682	41966	39345
635	0	34607	31801	39344	37610
636	0	31219	33116	41023	32291
637	0	25476	34991	41250	39419
638	0	37235	35182	44330	32482
639	0	30168	25541	25285	32093
640	0	33388	44561	25161	37657
641	0	25799	40803	28197	32223
642	0	32873	32952	38415	44542
643	0	40759	36212	29145	31655
644	0	27834	35205	38177	25305
645	0	44468	27508	42848	28495
646	0	37332	32326	39408	43123
647	0	39687	27115	39451	40671
648	0	33414	27374	44452	41059
649	0	30958	34030	32154	41527
650	0	26931	25736	35895	26900
651	0	42508	25891	41090	30688
652	0	38893	35178	32878	39026
653	0	25460	36197	32494	44317
654	0	43044	31601	42854	29161
655	0	44484	33682	34113	34996
656	0	33633	35977	36523	36732
657	0	27417	37932	31181	43028
658	0	25027	42935	36712	38538
659	0	27395	42164	25328	35607
660	0	39189	30563	36700	36036
661	0	37597	37056	35736	39610
662	0	26928	39897	41467	32034
663	0	32941	44500	37159	28953
664	0	35680	31765	40484	28055
665	0	35948	33680	41025	27200
666	0	40751	42712	30433	29681
667	0	31506	37675	27818	30392
668	0	34948	38391	28000	42160
669	0	28581	32220	34345	41247
670	0	35236	27020	29998	27659
671	0	34351	43537	34437	32275
672	0	32811	29363	25554	27463
673	0	31874	30536	30767	27160
674	0	41562	34985	42788	38917
675	0	26237	25754	36541	26750
676	0	35609	42252	30972	35693
677	0	41585	33838	31162	25677
678	0	32748	33493	37574	40783
679	0	37914	41446	44664	30818
680	0	37650	41644	31749	44275
681	0	37782	26133	32566	37797
682	0	42120	26920	38904	36260
683	0	34942	41798	37392	26704
684	0	40551	26372	44621	34610
685	0	39893	37678	37539	35659
686	0	30749	41758	30460	39032
687	0	40262	25056	44808	44160
688	0	40819	30000	43993	27486
689	0	30530	40592	34154	44104
690	0	38289	37431	44958	38447
691	0	40573	26300	27091	29705
692	0	42884	36163	44789	40952
693	0	42727	38196	44628	27458
694	0	33763	40155	25007	42905
695	0	42337	26840	25207	28261
696	0	43818	30920	29283	42392
697	0	28940	34816	33407	33665
698	0	34516	26193	44847	32392
699	0	39770	30440	37265	42440
700	0	31874	42350	29961	37029
701	0	43927	44827	39476	31417
702	0	27835	34079	34142	30288
703	0	35074	40363	41563	28809
704	0	27196	26661	30414	35400
705	0	43568	35282	44975	41048
706	0	32101	37454	33807	30914
707	0	42838	32382	29708	32300
708	0	28831	26363	26821	31041
709	0	37107	25367	42705	41908
710	0	35890	38731	30667	35488
711	0	38512	32856	40774	40471
712	0	35820	34156	25299	38222
713	0	39133	31376	37393	26610
714	0	38130	38934	42097	39342
715	0	32713	31807	42145	37514
716	0	28814	41750	38162	34184
717	0	32359	28876	43966	43773
718	0	40419	40186	40947	44281
719	0	36889	26969	37834	40871
720	0	31850	37146	25837	26670
721	0	30330	30225	35623	40154
722	0	33601	41633	32342	37468
723	0	28082	42496	37930	32204
724	0	25573	35409	32396	36802
725	0	31382	43967	33665	43006
726	0	39315	40854	43700	38636
727	0	40470	42968	40568	29551
728	0	41486	38359	36238	43972
729	0	41424	25952	31353	28513
730	0	41879	36862	41876	25400
731	0	33636	43859	29954	30547
732	0	29200	25135	37046	27063
733	0	41391	44877	25653	41497
734	0	43148	39382	35447	42506
735	0	32253	28926	29822	26221
736	0	28795	37993	42553	34227
737	0	42420	30894	43592	42363
738	0	30561	41036	38384	40802
739	0	33891	39051	44772	33683
740	0	26978	37887	44509	30364
741	0	27650	26957	41280	31596
742	0	36633	25593	35153	43476
743	0	38279	26244	32717	41541
744	0	32650	30403	25693	32141
745	0	43586	40017	29473	29050
746	0	38466	26276	30192	42296
747	0	40553	37663	38266	40744
748	0	39441	25271	33224	40962
749	0	43263	42390	27377	32176
750	0	39095	26504	31739	42015
751	0	44781	27815	41216	35349
752	0	31817	30286	41001	39274
753	0	43861	41972	29964	25660
754	0	26033	30367	26272	28580
755	0	35371	35212	42375	28421
756	0	33985	36114	32928	33664
757	0	32422	44836	39052	36458
758	0	42136	30595	39639	29597
759	0	44687	36358	44659	30053
760	0	38712	25403	33821	31999
761	0	37172	26502	29427	28403
762	0	29030	41460	27654	35881
763	0	43498	31885	43752	44834
764	0	43274	34132	30187	43469
765	0	40424	29241	38823	29502
766	0	43964	31214	26067	30608
767	0	43102	40247	37455	30686
768	0	32530	27654	41705	26716
769	0	35796	34377	44014	42278
770	0	37592	30262	27278	39402
771	0	29208	33942	30997	27341
772	0	32604	44472	34984	42196
773	0	30936	32189	28815	29752
774	0	27579	30847	38143	39633
775	0	37972	32951	42618	34422
776	0	43392	30268	44112	30879
777	0	44571	27999	34686	33244
778	0	36289	42667	44147	38100
779	0	35064	27864	39265	27154
780	0	31696	29102	38487	26832
781	0	39535	25509	32346	31244
782	0	44300	28131	42677	27020
783	0	26097	39945	38783	28101
784	0	26599	26200	44905	37763
785	0	37205	27858	36633	43135
786	0	25093	38588	35944	39508
787	0	40954	39682	39771	36315
788	0	38680	32964	43373	30471
789	0	39815	39263	31341	36684
790	0	37246	34387	42322	39893
791	0	42408	34868	32509	35704
792	0	27384	36750	33762	42183
793	0	26098	43575	35883	35409
794	0	34875	31694	25857	27060
795	0	26207	30652	33827	36029
796	0	26301	37561	38667	37444
797	0	35340	30264	41345	30161
798	0	39904	38180	41467	37644
799	0	28083	37009	36365	28095
800	0	25215	40210	38533	30434
801	0	29966	42849	39974	41516
802	0	25954	43636	33731	30362
803	0	38034	32738	34844	39193
804	0	32726	41788	43031	44026
805	0	31856	29054	38358	32245
806	0	38299	25842	41256	34840
807	0	44697	39994	30941	42289
808	0	37026	36962	28596	28918
809	0	28756	36364	40764	33539
810	0	29875	42089	30630	43891
811	0	28532	36830	44790	33549
812	0	44491	37726	43962	44487
813	0	44897	40184	35653	25236
814	0	36742	42218	28116	25583
815	0	41809	38169	32163	36887
816	0	38579	34064	27752	34052
817	0	36198	39334	36960	36517
818	0	27537	25420	25038	25746
819	0	30307	41142	43863	43348
820	0	39975	39349	39442	39692
821	0	25868	37660	28741	31475
822	0	25982	27357	35674	30066
823	0	26308	28410	41161	30037
824	0	31199	37546	29806	29846
825	0	37825	40761	26322	38310
826	0	27597	41759	40853	27844
827	0	27282	31593	32975	32318
828	0	31442	32114	25279	37014
829	0	26342	31447	40215	38343
830	0	41971	40885	44099	38383
831	0	40489	38818	41983	43548
832	0	32295	37346	28269	27078
833	0	40144	44303	41676	27427
834	0	36781	41190	43513	32220
835	0	27724	39538	28446	34134
836	0	35627	37704	25961	38753
837	0	25963	40047	37350	40033
838	0	32106	43107	26863	27868
839	0	28984	39456	34534	28684
840	0	34046	34488	41320	40279
841	0	43830	37144	35363	38049
842	0	37413	38052	27705	32009
843	0	40824	37280	42360	33044
844	0	35954	37050	39764	35922
845	0	38906	32231	44761	26585
846	0	39572	39482	37687	41110
847	0	32619	26275	40558	39118
848	0	27681	34655	30539	44329
849	0	30182	30291	29523	37473
850	0	32639	27639	34622	44883
851	0	30092	29227	32908	32777
852	0	28274	30261	26394	39271
853	0	32516	25326	28935	29068
854	0	38849	27843	37820	26114
855	0	40950	29528	41791	38392
856	0	30946	44115	25283	37147
857	0	33138	38570	39761	26884
858	0	42194	29430	29170	28038
859	0	40827	43600	36045	35759
860	0	27686	44795	41313	28171
861	0	42218	30428	41187	44690
862	0	31221	27703	43055	30935
863	0	35894	25932	27640	40219
864	0	39235	36298	27447	39350
865	0	31479	38594	30800	35822
866	0	35956	32021	30981	39129
867	0	37492	29261	44515	44236
868	0	35885	40299	32336	26972
869	0	40695	27041	37645	38603
870	0	31593	43797	26533	35336
871	0	29672	36118	36165	38032
872	0	32976	42783	39807	38526
873	0	28138	31311	29475	25095
874	0	37227	28232	41123	25719
875	0	25518	44725	34026	28722
876	0	42399	25803	43772	41451
877	0	37851	40336	40018	34313
878	0	34924	33019	29009	26251
879	0	40804	38382	43093	32642
880	0	25690	35691	27411	28530
881	0	42280	33066	42627	26023
882	0	32278	25632	43888	32328
883	0	36171	28178	27926	37007
884	0	26194	26117	30353	43071
885	0	26241	32759	34318	26815
886	0	37316	35040	33061	44714
887	0	27786	43958	26421	29779
888	0	44336	43849	38123	37060
889	0	28265	44897	35725	31467
890	0	35656	29276	27207	41310
891	0	27259	38131	33551	31051
892	0	40061	41313	25019	37132
893	0	43072	27825	39449	41755
894	0	42553	38765	43573	33899
895	0	32698	29434	31368	26969
896	0	31892	33731	27684	42283
897	0	31697	41980	27827	42401
898	0	38249	30051	37702	44156
899	0	30222	27907	34679	36970
900	0	30997	29555	26401	40127
901	0	26518	30303	28955	28499
902	0	29671	41579	35308	35199
903	0	28714	32337	37246	32647
904	0	38829	26750	40019	42348
905	0	42249	39227	30904	43639
906	0	39122	39770	41883	40414
907	0	44417	34443	44314	32589
908	0	26897	43734	43587	33227
909	0	38528	39028	37614	26752
910	0	27428	43580	32469	34776
911	0	30803	36220	36393	42176
912	0	40280	36435	25020	37664
913	0	34092	27782	41489	31777
914	0	33713	42525	41721	39382
915	0	36662	38170	39270	42732
916	0	35392	32982	36170	27642
917	0	40009	31933	30703	40533
918	0	27986	32896	44917	40740
919	0	32857	43755	36022	31040
920	0	34439	42495	33982	37184
921	0	44149	32580	25400	42824
922	0	40624	28291	27805	39877
923	0	39036	30498	43728	43929
924	0	42980	43359	25744	34519
925	0	32346	29062	34772	31300
926	0	38288	30370	27833	40477
927	0	41166	28273	44883	41975
928	0	43785	33146	37000	35004
929	0	43348	43740	38104	30051
930	0	35434	32136	39237	43659
931	0	43153	32008	29842	43590
932	0	39195	35163	26541	41162
933	0	37575	29975	34370	41380
934	0	27506	36121	44322	42955
935	0	32379	38139	40339	25160
936	0	31903	44947	41338	33653
937	0	34983	44866	37829	30911
938	0	30937	30093	44695	28714
939	0	40997	28391	40848	33273
940	0	31787	27573	25015	27876
941	0	42199	35206	25350	39960
942	0	30049	36867	27049	42069
943	0	39870	28755	30953	41535
944	0	27201	37483	26757	30440
945	0	26117	39970	27025	29563
946	0	44280	34320	34719	29809
947	0	27172	36287	38639	41879
948	0	40260	39340	38438	44266
949	0	44209	30552	35672	33422
950	0	35364	32690	40031	31914
951	0	38904	41376	42523	28158
952	0	26814	43532	41788	42594
953	0	40846	44952	43443	31899
954	0	33034	35794	28402	40244
955	0	44499	25094	41474	40055
956	0	26952	29416	38940	28794
957	0	35248	31850	28010	31694
958	0	44401	31364	39896	29880
959	0	44076	36815	31036	38573
960	0	33490	29847	39276	37972
961	0	44317	29070	33266	37486
962	0	42143	26651	40324	43743
963	0	42993	41870	35215	41257
964	0	43114	42596	39616	33406
965	0	25501	30728	39590	32742
966	0	33161	27833	27594	25115
967	0	30986	26745	27480	32143
968	0	38112	42049	30814	40026
969	0	38283	37565	36296	27439
970	0	29262	27335	42723	32373
971	0	36154	25776	28947	42038
972	0	28743	26370	38403	27784
973	0	27188	29117	27293	41608
974	0	31448	43545	38930	35572
975	0	34097	36852	30930	31333
976	0	37916	41873	40706	30598
977	0	32942	39047	31957	34153
978	0	30804	35783	37960	42830
979	0	39746	37846	30366	27176
980	0	39494	41425	31090	27871
981	0	39653	28316	31171	29260
982	0	35254	30931	43790	34340
983	0	28119	36655	27607	30065
984	0	30705	28175	37382	28895
985	0	40307	44748	26641	37875
986	0	27630	25956	39040	27459
987	0	28688	36694	39310	30022
988	0	39862	36174	41789	39077
989	0	41302	40931	38829	37778
990	0	25659	36491	34046	29316
991	0	42146	36522	31245	40109
992	0	28514	41034	40180	27350
993	0	40698	43829	27748	34481
994	0	43015	26408	44218	27129
995	0	33182	40094	26841	39260
996	0	31747	38978	36355	34868
997	0	41379	31608	37292	39184
998	0	43062	27027	40339	33046
999	0	37133	44227	35704	34047
1000	0	39117	40637	28516	33846
1001	0	33588	33868	30360	26748
1002	0	39502	38116	38224	33774
1003	0	34136	38363	25729	29547
1004	0	30559	43120	26391	41557
1005	0	30511	26630	25959	37490
1006	0	32959	36030	35932	41804
1007	0	40826	30943	33709	30048
1008	0	30371	31286	33328	34065
1009	0	38428	29047	30364	38894
1010	0	38780	39759	39811	36753
1011	0	30446	30950	33041	38990
1012	0	35933	36033	40872	38065
1013	0	41548	33492	30419	41021
1014	0	26324	35149	28006	27450
1015	0	43855	29938	27943	38456
1016	0	35036	40202	44837	25048
1017	0	38146	27489	38549	25689
1018	0	34249	39584	44260	44020
1019	0	40655	36869	28943	43702
1020	0	34827	42207	33311	43837
1021	0	36651	34372	28698	44754
1022	0	27487	31250	41476	28606
1023	0	29258	34014	32935	25195
1024	0	39152	37570	36355	32507
1025	0	43580	35636	32474	40956
1026	0	38125	27889	29118	36539
1027	0	25856	29558	37907	28055
1028	0	30204	41150	40688	36062
1029	0	42971	28958	28180	28511
1030	0	42340	39047	28490	27298
1031	0	42751	42570	29400	27695
1032	0	32326	26928	27509	36345
1033	0	29429	37213	25335	37434
1034	0	33211	31280	40514	27315
1035	0	41561	29707	33472	31844
1036	0	29286	42260	43494	27221
1037	0	34336	35729	33401	44214
1038	0	30191	33865	36944	29921
1039	0	40741	37522	39438	43906
1040	0	40932	40040	29165	37680
1041	0	41830	34084	28636	41877
1042	0	27147	36625	43341	29215
1043	0	43883	36194	36742	27257
1044	0	31168	30224	39235	28817
1045	0	40319	29664	32698	28270
1046	0	39546	32189	39277	41860
1047	0	26142	37192	35446	37483
1048	0	38343	39588	31388	31762
1049	0	38465	39016	40133	31555
1050	0	37767	34501	29930	33173
1051	0	39725	31359	30582	36560
1052	0	30126	32710	25423	25593
1053	0	34479	27930	43342	28551
1054	0	41563	33487	26286	26777
1055	0	44025	41477	25495	30592
1056	0	30138	25249	33408	37022
1057	0	33794	30401	41382	30733
1058	0	40316	38579	38110	31317
1059	0	41730	38227	39051	44477
1060	0	29270	31003	39383	29661
1061	0	27307	32851	29765	26409
1062	0	31642	40458	28932	35932
1063	0	27461	41338	33695	29499
1064	0	42935	42818	29099	29092
1065	0	28799	41853	29548	32772
1066	0	33307	25511	28497	31376
1067	0	31603	41212	27813	43188
1068	0	37155	42274	43365	42575
1069	0	41553	25158	27287	26291
1070	0	31667	29141	44715	34455
1071	0	30678	40100	42637	33336
1072	0	40157	39509	32840	39447
1073	0	44199	31378	42597	34136
1074	0	43409	41357	44204	41032
1075	0	33288	33671	27633	35309
1076	0	43178	39028	39824	30223
1077	0	29546	42907	27398	39474
1078	0	34773	34053	36695	39532
1079	0	31635	27961	36812	41737
1080	0	36402	33726	28793	42670
1081	0	27867	44154	38116	28453
1082	0	38688	33901	40229	40253
1083	0	27666	38607	41602	25552
1084	0	29995	40755	32700	41235
1085	0	39113	44431	39051	25784
1086	0	33570	28519	44825	41523
1087	0	38829	31363	33763	30907
1088	0	30403	44212	39111	27618
1089	0	42711	28908	26081	44713
1090	0	42782	30056	39072	39422
1091	0	42999	26041	38244	26194
1092	0	26575	31178	43619	37727
1093	0	29116	32152	25426	27859
1094	0	29963	44916	27621	35832
1095	0	34834	42380	31056	34957
1096	0	43256	41003	31462	35857
1097	0	26505	35623	28320	31094
1098	0	27418	30517	38592	41165
1099	0	29865	35129	25100	28696
1100	0	40685	41994	41058	27182
1101	0	38855	38633	29150	43630
1102	0	26882	35374	42221	29854
1103	0	36997	35039	42761	25628
1104	0	33445	36213	25350	43302
1105	0	38623	34998	27850	38399
1106	0	35879	30268	39086	39697
1107	0	37295	27426	36971	27105
1108	0	29476	43318	28025	26005
1109	0	27544	41283	30732	25109
1110	0	26848	42459	25415	39822
1111	0	32867	26816	27323	34201
1112	0	43897	40364	41389	36271
1113	0	32142	37802	27905	31162
1114	0	29524	37468	26404	40288
1115	0	43051	39229	26837	33194
1116	0	37600	36205	34640	37818
1117	0	27707	41935	36102	35869
1118	0	33882	26974	33303	29805
1119	0	28346	36498	42484	35475
1120	0	37587	44355	41894	30814
1121	0	42395	36943	39104	43230
1122	0	42342	38825	39649	32076
1123	0	36244	39740	43110	26261
1124	0	27661	27254	38508	44788
1125	0	27999	35391	38173	40069
1126	0	37414	26700	31995	43387
1127	0	42299	41347	44103	33656
1128	0	40115	43170	34267	33299
1129	0	36931	34024	31570	38899
1130	0	28949	30579	34321	39302
1131	0	28366	37361	37576	28931
1132	0	32819	44769	43076	44651
1133	0	41069	26063	39151	43178
1134	0	27272	26514	44471	44056
1135	0	31510	30907	35250	35254
1136	0	35535	44706	36100	38391
1137	0	37733	29631	32592	40951
1138	0	29458	34505	35421	40189
1139	0	35885	25684	41474	26363
1140	0	26646	31193	28454	43674
1141	0	31136	44934	38762	25115
1142	0	39616	39537	30470	44256
1143	0	31408	25423	35848	37782
1144	0	33127	39164	37717	27401
1145	0	26783	35726	37569	30586
1146	0	38137	40356	34441	41636
1147	0	44268	27245	43463	44553
1148	0	25705	26417	44281	36242
1149	0	27604	37828	35509	30088
1150	0	31683	38190	41990	39165
1151	0	31780	41654	39946	36466
1152	0	38402	32154	27102	34330
1153	0	36430	30357	31082	26603
1154	0	32001	38448	37728	26971
1155	0	31783	30265	39925	29410
1156	0	42113	29389	28693	29446
1157	0	29291	25367	35891	30625
1158	0	29970	41769	44133	41224
1159	0	36421	36153	43366	42921
1160	0	40103	31840	36305	40635
1161	0	33102	32169	27409	44340
1162	0	42348	31384	28153	25733
1163	0	25332	25784	26874	32128
1164	0	40632	32021	42711	28387
1165	0	39516	38908	42534	33157
1166	0	39187	33293	36622	39165
1167	0	44088	43426	34315	29051
1168	0	31711	31746	25595	40035
1169	0	29533	43678	34508	34099
1170	0	40242	30754	35211	33201
1171	0	28298	31781	29323	42010
1172	0	42306	34756	34698	27760
1173	0	28163	36612	39325	25863
1174	0	34564	29458	25352	29821
1175	0	29199	27131	40887	37515
1176	0	31627	43682	39994	28599
1177	0	36055	28391	29539	26683
1178	0	38367	29381	34086	27826
1179	0	34720	31139	37168	40555
1180	0	25117	34710	34061	39065
1181	0	44475	26712	37955	42292
1182	0	44499	44829	28764	28528
1183	0	39721	40499	43883	30708
1184	0	37570	35574	43941	40636
1185	0	25600	27585	35656	35860
1186	0	28225	37093	36357	34547
1187	0	26308	41297	28632	30768
1188	0	37126	29980	28172	32260
1189	0	30544	26705	33615	42398
1190	0	41032	35313	35732	30283
1191	0	28749	41578	31596	38158
1192	0	43479	25454	36179	32787
1193	0	27229	37064	42822	39125
1194	0	41092	28018	27868	25159
1195	0	27988	27953	34512	27610
1196	0	29574	43256	30912	33516
1197	0	34785	40588	32273	29982
1198	0	36001	27783	33669	38058
1199	0	31835	41692	38652	39122
1200	0	37081	31703	26989	36335
1201	0	33546	32543	36573	33299
1202	0	26641	28328	32706	41977
1203	0	39207	36311	30410	42098
1204	0	27832	28614	26520	33973
1205	0	30022	28348	26777	36052
1206	0	38391	33002	30274	26186
1207	0	35688	41695	37298	41658
1208	0	36635	39666	39652	42977
1209	0	38626	34482	29698	26622
1210	0	32698	28924	28440	37442
1211	0	26096	44540	36501	25970
1212	0	43950	40038	31011	26402
1213	0	34265	37565	30684	41303
1214	0	28149	39541	33925	43791
1215	0	32326	42628	31027	29695
1216	0	30857	37922	34405	27737
1217	0	32892	32596	26375	29499
1218	0	30158	27752	43460	36769
1219	0	33296	31013	38915	29203
1220	0	28084	40692	38315	43098
1221	0	32879	28456	30874	26407
1222	0	32297	44720	33549	28160
1223	0	31299	36719	42757	38363
1224	0	25705	42621	33639	39409
1225	0	26636	25528	36141	40970
1226	0	41419	41292	27987	38791
1227	0	39961	32775	41316	43558
1228	0	28860	33740	30839	35937
1229	0	30160	37626	29254	26323
1230	0	29188	43181	31500	42433
1231	0	43303	26081	39832	38554
1232	0	28248	29661	33191	29228
1233	0	44318	41114	26049	33126
1234	0	33752	30261	34184	35182
1235	0	34024	37976	40136	27837
1236	0	33381	32645	31491	35090
1237	0	44799	25209	25283	43373
1238	0	39625	25709	30027	44683
1239	0	43840	28055	26153	31642
1240	0	38320	31644	38292	43095
1241	0	36851	37845	33632	42195
1242	0	29890	26592	44736	37834
1243	0	39111	28365	33643	31280
1244	0	25174	28953	37913	32847
1245	0	35733	27002	39593	42349
1246	0	32139	36675	42551	30736
1247	0	27443	33969	31035	32310
1248	0	42212	35236	34946	29992
1249	0	35629	27193	42564	44052
1250	0	36001	36091	36541	26557
1251	0	29095	41833	29007	25656
1252	0	41251	44937	42025	34190
1253	0	35121	30862	28686	34261
1254	0	34290	32487	39540	27452
1255	0	41132	38953	36019	27630
1256	0	34881	30606	32611	39731
1257	0	29121	42112	42838	32266
1258	0	37865	44084	33416	27590
1259	0	38572	35692	37033	42956
1260	0	28439	30298	26593	38589
1261	0	36949	35056	31280	44309
1262	0	36992	26049	36050	42753
1263	0	40709	38553	31516	43882
1264	0	31495	35529	29940	28405
1265	0	34326	35289	26046	25006
1266	0	41117	25711	33357	32349
1267	0	26282	38846	44369	42232
1268	0	40525	27410	38375	30266
1269	0	42925	32926	40564	36040
1270	0	27673	37074	38637	27255
1271	0	36116	33261	44412	42271
1272	0	33940	35394	42919	28143
1273	0	38081	41993	40688	35376
1274	0	25940	43842	39103	40479
1275	0	41474	31916	28022	42480
1276	0	36539	25857	27941	38826
1277	0	29720	35031	28720	40747
1278	0	34339	29615	32540	44563
1279	0	36894	25815	43169	33319
1280	0	32282	30088	39264	30241
1281	0	44760	26903	36078	39723
1282	0	26957	26316	28979	43322
1283	0	37949	25999	44827	25804
1284	0	28114	42586	28716	25923
1285	0	39197	36409	38203	29766
1286	0	35444	42225	27229	36055
1287	0	43403	32181	40408	40232
1288	0	32741	40689	39771	44997
1289	0	37260	40102	42697	39899
1290	0	31605	35381	40206	44848
1291	0	43393	34007	40075	26844
1292	0	40613	35523	26815	43645
1293	0	25892	35614	31730	30016
1294	0	40804	43177	36857	38629
1295	0	43803	34864	35500	42993
1296	0	33609	38275	38863	28010
1297	0	34304	27471	33436	39729
1298	0	35768	31638	31715	37441
1299	0	42131	28811	37675	29624
1300	0	43477	37530	42968	27963
1301	0	40780	27441	31530	40652
1302	0	43252	31753	28643	34959
1303	0	29451	44621	28153	41172
1304	0	42819	26918	36822	37542
1305	0	27501	44612	41791	29235
1306	0	42491	36524	34701	44317
1307	0	40239	40359	32542	44697
1308	0	37215	29130	44557	31503
1309	0	31754	26770	43107	28200
1310	0	42521	38699	30195	33363
1311	0	31984	38782	27157	41959
1312	0	41042	31725	43150	26318
1313	0	27392	41508	37582	39772
1314	0	43971	29473	31577	34453
1315	0	32549	44992	33671	44684
1316	0	43468	33583	33208	26410
1317	0	28263	43873	25894	41018
1318	0	39472	31654	35595	33641
1319	0	32065	30906	43699	30203
1320	0	36398	38153	36210	40108
1321	0	41472	29446	33241	29368
1322	0	32130	36838	29488	44211
1323	0	28315	34002	27750	31620
1324	0	31612	32561	39769	35874
1325	0	41647	33168	28837	29685
1326	0	29216	36685	38697	36050
1327	0	37592	30648	43949	36577
1328	0	32191	41110	38120	28649
1329	0	34115	27918	25089	33327
1330	0	38970	31372	35736	35252
1331	0	38406	32668	31534	44238
1332	0	30025	34880	44248	25593
1333	0	38461	41407	44923	34246
1334	0	36958	30166	37426	33231
1335	0	40799	44329	43361	31833
1336	0	26103	28283	43959	44580
1337	0	39717	42346	43743	36082
1338	0	27620	41143	30807	28769
1339	0	31365	36771	34566	37097
1340	0	40317	27767	35342	42747
1341	0	37311	29910	33206	36692
1342	0	26420	34618	32286	32731
1343	0	36716	37751	34229	28385
1344	0	32974	29232	36349	40529
1345	0	35642	32733	34272	33850
1346	0	40469	36986	35675	36188
1347	0	41271	43305	38384	30213
1348	0	28381	28937	40285	29338
1349	0	42952	31254	43258	35457
1350	0	32736	25354	30971	37214
1351	0	44113	39497	40911	44626
1352	0	28103	26601	39458	30765
1353	0	33498	33245	26071	36505
1354	0	38301	35093	33174	34220
1355	0	32075	43425	35135	35576
1356	0	35174	33221	26358	42949
1357	0	40676	25046	37231	42449
1358	0	44462	30036	43646	40776
1359	0	37342	37836	38280	35366
1360	0	32168	30344	31219	32109
1361	0	31767	35126	39287	26238
1362	0	44945	27794	40765	28930
1363	0	34157	42064	34983	29575
1364	0	44561	25771	35333	39457
1365	0	30999	31164	34197	31002
1366	0	40822	32883	25596	35033
1367	0	38299	43025	31269	43485
1368	0	43995	33129	36929	33175
1369	0	44031	30488	37314	29396
1370	0	26794	35058	28482	36397
1371	0	25827	35514	37287	37975
1372	0	38840	27692	42691	39896
1373	0	35531	30316	25769	35012
1374	0	44999	39330	28340	27496
1375	0	41977	26727	32273	39658
1376	0	31180	41461	42461	39379
1377	0	42521	37691	43478	26753
1378	0	25231	41566	28699	38305
1379	0	34186	29751	37107	36994
1380	0	37495	36013	34959	39207
1381	0	42271	34967	30515	37321
1382	0	33793	29751	28154	41935
1383	0	32465	29928	26924	36683
1384	0	38198	41933	28919	42654
1385	0	29524	36895	40358	40779
1386	0	33749	40724	26702	35219
1387	0	28301	28883	25913	27829
1388	0	27874	26833	42745	35582
1389	0	41168	30866	33223	41031
1390	0	30128	27920	33919	30168
1391	0	40492	37092	42325	27961
1392	0	36840	35307	36671	42779
1393	0	41017	25468	32377	25463
1394	0	32377	31047	33643	41021
1395	0	32488	34747	43417	38096
1396	0	44788	35553	42443	28946
1397	0	39695	41704	30154	37832
1398	0	34018	31543	37580	27831
1399	0	37452	39883	27000	38323
1400	0	31356	43445	44390	28293
1401	0	35169	43055	40676	31118
1402	0	25397	42321	29291	25311
1403	0	37327	27925	28091	41798
1404	0	30856	35777	28439	37654
1405	0	34889	28876	31748	38875
1406	0	30707	27681	43149	28196
1407	0	42517	29387	37666	36705
1408	0	30604	40669	32013	29227
1409	0	31472	39320	35648	34733
1410	0	37788	25450	29370	37472
1411	0	41032	26157	35039	36648
1412	0	31489	40188	38227	30021
1413	0	28601	38979	40759	28628
1414	0	31582	27386	41406	39668
1415	0	39818	35221	43452	27202
1416	0	39117	34631	29575	43373
1417	0	27682	29161	35521	40269
1418	0	39453	29235	39553	34227
1419	0	32807	37378	35173	37950
1420	0	37052	36542	26158	25470
1421	0	34042	33465	28668	40635
1422	0	40236	43438	27775	25840
1423	0	28898	33687	33231	35390
1424	0	38601	30415	30321	40558
1425	0	31899	34676	32155	41317
1426	0	38472	32999	44108	39418
1427	0	34974	30707	25662	33010
1428	0	25772	36983	37533	34692
1429	0	33051	34483	43648	33233
1430	0	28331	44673	36828	29279
1431	0	40978	34820	31560	41049
1432	0	37617	36323	43330	36982
1433	0	38442	41211	30744	38822
1434	0	41395	25762	35863	36285
1435	0	44871	25560	25375	44171
1436	0	35307	35820	37306	44557
1437	0	38284	41256	41543	33501
1438	0	44232	30146	33919	36344
1439	0	29207	38668	38655	26815
1440	0	27119	28680	41096	42872
1441	0	32807	34832	27535	30880
1442	0	33891	34833	29856	28167
1443	0	31524	25445	28582	26240
1444	0	33676	29883	44899	25635
1445	0	30019	35509	39158	38270
1446	0	41291	40753	38153	38977
1447	0	35972	35035	36656	30468
1448	0	40055	32424	43937	30829
1449	0	27096	43995	26379	29828
1450	0	36299	37449	43940	42472
1451	0	26630	37354	29700	31157
1452	0	34743	28831	40688	28520
1453	0	31339	43676	36071	35816
1454	0	31339	36657	37181	29011
1455	0	38695	39149	43213	32287
1456	0	30129	33220	40773	29905
1457	0	29407	38761	25729	43983
1458	0	39714	27722	27957	43440
1459	0	37633	32338	32781	25583
1460	0	28074	42345	39851	35608
1461	0	27328	25720	29704	30845
1462	0	28919	39098	28285	26753
1463	0	42542	29622	34731	36575
1464	0	41311	25575	38742	34413
1465	0	42920	26625	28329	25301
1466	0	39932	27184	26130	40725
1467	0	39383	25897	36795	30139
1468	0	40378	36937	25322	32773
1469	0	25760	44879	34322	39865
1470	0	42971	32041	32012	28266
1471	0	34208	35600	33011	43045
1472	0	32205	33799	25044	28537
1473	0	38426	28041	33860	27863
1474	0	31207	31400	34619	33492
1475	0	36077	29649	41718	44476
1476	0	30415	35336	35709	27604
1477	0	32409	29939	27934	33879
1478	0	39130	29745	29696	40042
1479	0	42139	33558	29846	37432
1480	0	34153	42162	38816	28344
1481	0	40299	41531	41969	32317
1482	0	41726	39690	41680	38401
1483	0	37394	26083	41344	25570
1484	0	30165	29759	27033	38469
1485	0	36780	32775	25250	38210
1486	0	27560	44429	38229	37441
1487	0	25925	26803	42190	27452
1488	0	43426	38993	37187	42135
1489	0	33043	36317	39851	38169
1490	0	41790	41848	28659	30095
1491	0	27765	43299	27228	28318
1492	0	25474	33868	35591	41392
1493	0	40970	39949	42787	33282
1494	0	34214	34173	43960	40288
1495	0	44026	27527	42036	37451
1496	0	32920	37540	43028	30056
1497	0	33637	41428	26328	26980
1498	0	26601	43062	40898	38488
1499	0	29344	30703	25176	44427
1500	0	33380	29112	34077	26801
1501	0	25179	43927	35829	36024
1502	0	33540	31771	33700	42996
1503	0	40474	37899	29224	26435
1504	0	33727	34992	29628	42883
1505	0	41485	41028	28342	38638
1506	0	25556	25174	41616	41276
1507	0	39086	37082	44788	28143
1508	0	36086	44144	26634	32148
1509	0	39260	30908	41002	39909
1510	0	36481	39011	33804	31108
1511	0	33796	41614	31033	39898
1512	0	26161	39808	25185	42501
1513	0	25514	43189	44786	35178
1514	0	32781	37349	35732	32463
1515	0	43174	25407	28776	28796
1516	0	27578	34975	29824	32470
1517	0	44945	27567	26397	26214
1518	0	35796	25113	44000	27329
1519	0	35908	30828	32641	36565
1520	0	33733	40132	33102	36343
1521	0	41129	31245	26602	31443
1522	0	37495	39641	43045	41869
1523	0	40622	36428	27134	27742
1524	0	30505	33508	43240	35644
1525	0	35460	34040	40811	27826
1526	0	42114	30770	42316	36925
1527	0	38502	31536	41398	36306
1528	0	31640	39402	39663	37731
1529	0	43581	41911	31761	29518
1530	0	44895	25157	44798	34036
1531	0	40751	25227	31818	37131
1532	0	31965	33663	32993	30896
1533	0	38235	35586	28456	41287
1534	0	43889	43090	30997	29595
1535	0	26672	26268	41451	25446
1536	0	40575	41362	40431	35834
1537	0	38069	37381	41983	25503
1538	0	44333	34543	28210	34385
1539	0	27545	28143	25577	26313
1540	0	38442	41279	33685	32810
1541	0	29543	28960	41320	37419
1542	0	30102	29429	40283	40413
1543	0	35807	39798	26096	38973
1544	0	25307	33981	29040	34053
1545	0	37451	26299	25960	35460
1546	0	35403	29476	36821	31758
1547	0	36565	27952	36023	26966
1548	0	25437	32418	41745	44862
1549	0	25319	39033	32184	38105
1550	0	26561	27713	28867	35685
1551	0	39267	29989	25605	31559
1552	0	30957	41665	27463	28881
1553	0	41906	31100	39352	37706
1554	0	31788	32659	44419	44177
1555	0	39774	30245	32890	41236
1556	0	41589	38810	41183	28140
1557	0	27045	28108	36268	34951
1558	0	31171	34446	37973	35670
1559	0	26660	43974	42113	25457
1560	0	34922	29266	34425	39426
1561	0	32536	38875	41937	34917
1562	0	36731	40315	30475	31358
1563	0	44673	26546	32804	33494
1564	0	30760	34484	36346	25090
1565	0	35128	38936	32896	35851
1566	0	41039	36364	41667	25915
1567	0	34732	41297	40033	36694
1568	0	35995	26074	42180	37942
1569	0	29751	42537	43498	32981
1570	0	35926	36477	37474	32332
1571	0	30787	33743	26440	29498
1572	0	35591	39314	34389	26252
1573	0	37933	33812	30513	40390
1574	0	26709	37668	39012	38287
1575	0	34049	30243	31383	29632
1576	0	31318	34092	25169	27340
1577	0	36680	27248	41297	25863
1578	0	28039	26582	40670	29603
1579	0	26894	36559	37777	34699
1580	0	37848	41389	32936	43598
1581	0	34831	35767	25821	34204
1582	0	37848	35649	32369	28545
1583	0	34272	27254	39470	34696
1584	0	28547	40697	27087	37411
1585	0	25856	29520	28730	26856
1586	0	31106	30620	35554	38994
1587	0	40454	26217	28060	41033
1588	0	33991	29146	32433	27819
1589	0	25068	33934	38703	27202
1590	0	26221	26652	32049	35307
1591	0	32932	42574	29190	31651
1592	0	30304	37910	27320	40010
1593	0	29689	26339	29934	26951
1594	0	43211	26856	31684	27352
1595	0	37008	32276	41348	31389
1596	0	32892	27292	27844	29683
1597	0	25999	29220	25489	40139
1598	0	30928	39843	29123	37054
1599	0	30241	40807	43346	38503
1600	0	38797	43658	44831	40025
1601	0	44867	39207	44053	29332
1602	0	36766	38104	29995	42504
1603	0	35490	35998	32898	42372
1604	0	31681	42939	32193	44415
1605	0	36984	40797	32385	41072
1606	0	33582	40960	32506	37586
1607	0	25177	32921	44995	39165
1608	0	44483	38605	32113	42600
1609	0	30827	38143	26630	32638
1610	0	34188	43427	31761	31355
1611	0	29544	42703	32123	35902
1612	0	42158	26275	37802	29441
1613	0	34028	28186	26542	27484
1614	0	39626	42711	27424	31443
1615	0	28824	39934	29355	39760
1616	0	27900	41185	28551	33883
1617	0	41020	41720	41583	29529
1618	0	40522	43406	28000	29168
1619	0	39435	39149	38217	39628
1620	0	28386	27846	43805	39221
1621	0	41554	40251	42696	41376
1622	0	37004	30210	25910	33902
1623	0	38657	25751	26515	26372
1624	0	27063	36971	30633	25590
1625	0	43814	39076	26997	38241
1626	0	43533	29556	29007	37102
1627	0	27232	38617	42331	38431
1628	0	27256	42014	29293	40345
1629	0	43012	39569	28731	25442
1630	0	32281	33352	33734	41132
1631	0	27015	35826	31672	37534
1632	0	31020	39308	28191	30642
1633	0	28002	25025	41481	40825
1634	0	41324	30918	25711	36825
1635	0	39484	31036	31317	44886
1636	0	32046	34924	27886	27283
1637	0	29042	27846	42289	33610
1638	0	37183	26466	38045	34247
1639	0	34813	36145	44366	42347
1640	0	31505	29790	34384	43857
1641	0	26045	25270	29080	37163
1642	0	44467	43726	34746	39601
1643	0	30899	43275	26373	31131
1644	0	30314	41382	44759	32136
1645	0	40454	27186	43802	34802
1646	0	44139	25507	42634	37043
1647	0	44159	28213	36216	43109
1648	0	28117	29536	27133	28622
1649	0	31112	26850	44984	42989
1650	0	31326	42083	25810	25714
1651	0	26965	32803	31847	29765
1652	0	38856	25509	34345	25625
1653	0	44406	32044	40222	42250
1654	0	27724	29689	39208	31672
1655	0	29588	42736	29703	40539
1656	0	40202	32736	26191	27017
1657	0	36259	39184	40110	26467
1658	0	27295	28040	34208	32959
1659	0	25949	41658	31387	44728
1660	0	29674	36097	39067	26287
1661	0	29929	34598	25960	43039
1662	0	40419	37946	25348	35930
1663	0	27657	27279	27261	34138
1664	0	42104	36868	40123	42725
1665	0	26512	26598	44965	41158
1666	0	38073	32366	26230	30635
1667	0	25455	41345	40899	44316
1668	0	44292	27228	29406	43912
1669	0	35003	31237	26928	33449
1670	0	35648	36587	40690	35451
1671	0	39882	37250	33053	38473
1672	0	34782	37340	41095	26685
1673	0	34927	35946	25144	39365
1674	0	32511	30174	35037	39879
1675	0	35116	38889	25987	29725
1676	0	37759	26987	37938	38579
1677	0	33824	37526	36876	38090
1678	0	29313	27171	36504	30837
1679	0	32162	35796	40095	25350
1680	0	35598	39277	44391	43804
1681	0	39809	40193	36400	43957
1682	0	32984	32567	28343	30505
1683	0	32457	36324	28902	42940
1684	0	42953	37212	39280	40087
1685	0	28889	42383	41919	36383
1686	0	29875	38801	42201	27322
1687	0	37386	26857	31734	35474
1688	0	25321	30386	38357	25349
1689	0	41724	26523	42043	34941
1690	0	31274	38767	35665	36015
1691	0	25248	41663	29116	41901
1692	0	31558	36280	31782	40540
1693	0	26086	28957	26829	39816
1694	0	39421	41976	27196	32103
1695	0	43592	31124	28085	43798
1696	0	35955	29520	37344	34283
1697	0	30548	27791	27486	31833
1698	0	37897	28000	26184	40737
1699	0	44293	30860	42733	40554
1700	0	28874	26981	28503	38474
1701	0	31214	30795	25612	26071
1702	0	27589	34032	30471	37336
1703	0	28395	27337	42403	42662
1704	0	40458	28289	34979	39927
1705	0	44566	41123	35357	27389
1706	0	33784	38570	36458	38683
1707	0	43117	37860	25673	37132
1708	0	43568	44162	31793	36575
1709	0	39105	41851	37989	32579
1710	0	26394	29524	28356	27618
1711	0	41736	27337	34072	30282
1712	0	34658	38751	34000	30268
1713	0	40373	41326	38059	35646
1714	0	30235	42144	39569	31916
1715	0	32154	27429	33160	25144
1716	0	34507	33453	31916	25421
1717	0	26682	26859	41582	41451
1718	0	35160	42578	36537	40647
1719	0	44725	41889	36613	33818
1720	0	39395	33759	31534	29578
1721	0	39404	27052	30532	31175
1722	0	38079	44257	42386	29779
1723	0	43086	36591	27045	38738
1724	0	44549	31566	35272	27936
1725	0	33078	40487	35687	39921
1726	0	25012	43882	42677	32141
1727	0	26401	43851	25693	25397
1728	0	36153	31247	36748	43309
1729	0	26155	27874	36827	42713
1730	0	27021	42550	38743	42800
1731	0	30612	34207	43678	37411
1732	0	43894	37440	35062	35624
1733	0	39836	40549	32465	32050
1734	0	41749	29644	32535	30295
1735	0	29235	28105	36650	35514
1736	0	39290	33178	34773	33399
1737	0	35921	33507	39352	29433
1738	0	36309	41268	29492	38777
1739	0	38340	36957	31020	34251
1740	0	29064	43014	30280	41108
1741	0	43917	33471	37727	38988
1742	0	25188	29067	38326	25935
1743	0	41865	35869	36928	25758
1744	0	38475	26201	44858	42812
1745	0	25102	33256	37311	26530
1746	0	28898	43419	40852	42893
1747	0	25967	32390	38221	37493
1748	0	34396	27257	27490	27144
1749	0	37730	43177	33050	37869
1750	0	34030	40053	43205	30329
1751	0	31637	27918	35502	28742
1752	0	28565	36303	44727	30377
1753	0	34588	43562	25140	30139
1754	0	33048	36166	38843	31675
1755	0	39523	39310	39934	30363
1756	0	40456	33282	35469	36387
1757	0	42213	31305	42398	29592
1758	0	44784	39668	41109	44557
1759	0	28902	32196	39902	44013
1760	0	38875	33636	41347	31700
1761	0	30581	28915	29148	30258
1762	0	27888	30399	36502	26663
1763	0	30048	33537	35011	25778
1764	0	44699	33192	44301	43307
1765	0	37660	25630	42701	34029
1766	0	26220	35559	43580	35194
1767	0	26819	36940	39640	32628
1768	0	30084	42787	37105	35801
1769	0	32060	37104	42073	42254
1770	0	25075	26989	39353	27165
1771	0	35224	32894	25343	31028
1772	0	37493	44779	33809	26508
1773	0	36707	30515	29168	26705
1774	0	42024	43397	26264	40721
1775	0	25265	29908	34921	31569
1776	0	27511	36901	41166	38402
1777	0	28253	38893	26276	35888
1778	0	26578	29067	33314	38651
1779	0	39080	29291	25343	43626
1780	0	25107	38043	30093	44974
1781	0	31766	25403	36156	27099
1782	0	35993	35700	40583	33706
1783	0	25914	25597	31945	44071
1784	0	36168	42659	43540	38368
1785	0	34813	41174	28427	29525
1786	0	33995	41446	28807	34887
1787	0	28730	27527	43985	27632
1788	0	44601	33839	37951	36864
1789	0	25282	31135	30829	25012
1790	0	34156	27829	34898	42966
1791	0	25525	28069	25944	39585
1792	0	39845	34367	42539	26987
1793	0	37669	43303	25012	36561
1794	0	25065	25302	30570	41014
1795	0	31923	31977	37925	34255
1796	0	40371	35000	42255	39759
1797	0	37549	34016	38582	29379
1798	0	26655	40924	28898	43661
1799	0	25300	39773	36508	38389
1800	0	27580	26012	37352	31140
1801	0	39195	37616	36151	25909
1802	0	25957	41817	43920	40973
1803	0	39787	33846	40128	28741
1804	0	38271	33545	27518	35262
1805	0	34736	29477	41263	42569
1806	0	43491	35114	43407	41193
1807	0	35904	31624	36321	42552
1808	0	25589	42721	40715	44280
1809	0	39694	44056	33209	44621
1810	0	26703	40451	40589	36480
1811	0	35964	43298	32728	36476
1812	0	39357	33273	32062	30512
1813	0	36433	26335	33339	26134
1814	0	37841	34711	35965	26009
1815	0	31774	31959	43471	27117
1816	0	34723	39066	40919	26378
1817	0	28388	32748	37226	25510
1818	0	41714	37065	42002	43169
1819	0	34782	33237	31771	42697
1820	0	36480	31792	28622	35650
1821	0	33502	40810	25546	44667
1822	0	33741	37636	30223	33850
1823	0	34642	30888	39429	41246
1824	0	29372	27099	39252	32216
1825	0	42468	31198	37184	32889
1826	0	31901	41711	35658	25110
1827	0	36957	40943	25854	26116
1828	0	32996	33476	26565	38564
1829	0	28905	41941	26548	28064
1830	0	39463	29394	37804	25393
1831	0	40227	30362	34413	40458
1832	0	27796	41274	40222	26442
1833	0	41118	29886	36610	42314
1834	0	25825	31981	32968	36174
1835	0	25712	41983	44964	37463
1836	0	25696	36994	43905	34191
1837	0	42641	43400	36851	44754
1838	0	31969	29936	33352	41877
1839	0	27286	40396	44976	26319
1840	0	44140	28986	30934	34657
1841	0	42552	25559	40942	39873
1842	0	41069	35743	40181	38358
1843	0	25400	29248	35929	33645
1844	0	38647	41011	38233	27358
1845	0	41223	32673	25831	44302
1846	0	37731	40369	42346	25241
1847	0	28512	43959	25133	25176
1848	0	38093	26427	34046	27711
1849	0	42229	27899	42088	34616
1850	0	35656	33947	39027	33011
1851	0	26001	31788	27891	31313
1852	0	34179	33394	38700	41030
1853	0	43308	40803	33722	30039
1854	0	40720	27972	36037	27653
1855	0	31009	26008	39724	36616
1856	0	33563	41283	40162	30720
1857	0	37125	25925	34617	28974
1858	0	35326	31145	40463	26366
1859	0	25979	44896	25982	25297
1860	0	26969	36127	29551	33229
1861	0	39744	27059	35383	40018
1862	0	37434	35070	36498	40572
1863	0	28207	25188	43630	31076
1864	0	27872	26031	34289	26537
1865	0	35902	43153	40158	33552
1866	0	29261	27566	27459	44123
1867	0	27084	44909	41123	38796
1868	0	43197	33586	28902	32828
1869	0	27588	35161	38096	36322
1870	0	32056	35734	34379	44074
1871	0	40382	34276	32047	42065
1872	0	41944	37885	40317	29960
1873	0	41345	33456	32450	32960
1874	0	30202	42672	37612	28697
1875	0	28991	25388	38864	38882
1876	0	31887	40495	42208	30242
1877	0	30589	37151	25413	32501
1878	0	44884	27705	26156	35592
1879	0	30521	34241	39617	33338
1880	0	31051	40219	36602	34100
1881	0	42237	32576	38188	28087
1882	0	41076	27442	30034	32544
1883	0	26043	32185	40560	30841
1884	0	43794	34540	27205	33172
1885	0	39271	29075	40954	38989
1886	0	34952	27628	38488	39990
1887	0	30909	37467	41375	39607
1888	0	38157	35634	39837	35776
1889	0	42599	41064	35959	27200
1890	0	30153	40985	31443	28475
1891	0	27425	29636	27222	36192
1892	0	44171	33704	41809	34248
1893	0	43922	28222	40836	39026
1894	0	32332	35592	40730	43403
1895	0	40547	33609	30131	30997
1896	0	30939	40947	44173	29705
1897	0	25180	32989	36504	42427
1898	0	42317	44661	28885	38955
1899	0	44366	39810	38661	26289
1900	0	39362	42485	35239	39465
1901	0	30609	30351	38070	35705
1902	0	30154	44581	30441	40018
1903	0	42307	32796	32029	25644
1904	0	36340	34066	39443	43281
1905	0	32722	39930	30985	30186
1906	0	39854	29227	27109	42964
1907	0	35361	26382	39050	39168
1908	0	27091	27632	34924	43564
1909	0	39149	27915	28718	27147
1910	0	34624	25440	29860	31267
1911	0	32621	30910	41718	38867
1912	0	38739	33771	40266	29875
1913	0	35099	40292	42058	30825
1914	0	41277	25093	26335	30956
1915	0	36236	36389	41443	36344
1916	0	40363	39741	40071	35141
1917	0	25211	32441	39734	44259
1918	0	30631	31179	29602	37087
1919	0	35515	41667	29396	32186
1920	0	33345	28679	37828	42719
1921	0	27792	36342	42015	29094
1922	0	30592	44432	27738	26143
1923	0	26048	38758	37396	43941
1924	0	34720	37848	41878	39497
1925	0	27971	39465	28743	40433
1926	0	25700	43404	28498	33609
1927	0	30517	44338	26405	32057
1928	0	30163	30230	32652	38354
1929	0	43200	36479	38114	28745
1930	0	41288	37142	30464	42573
1931	0	35986	30599	25775	33194
1932	0	33436	39879	40257	35672
1933	0	31145	39696	34611	32071
1934	0	35400	35845	29335	31148
1935	0	44305	28275	37980	43079
1936	0	44844	25260	28346	28219
1937	0	33345	31711	42650	30332
1938	0	36071	27069	39534	42496
1939	0	35008	38990	29515	35235
1940	0	28757	41383	30695	31354
1941	0	40615	40748	32505	26420
1942	0	25528	36044	41371	29208
1943	0	33996	34350	41142	39005
1944	0	33934	36517	42881	42275
1945	0	34298	41753	36463	35287
1946	0	34568	34314	26137	36234
1947	0	28151	28277	36025	40281
1948	0	33203	34355	36865	26648
1949	0	39560	44789	27313	34713
1950	0	30112	28337	33448	31024
1951	0	43003	35513	43112	43534
1952	0	42050	30008	41956	36978
1953	0	29917	31742	41284	38382
1954	0	40813	44827	32869	35485
1955	0	26865	35730	31883	42020
1956	0	37930	44822	30045	27827
1957	0	33005	34406	42051	29588
1958	0	42459	42574	26263	40460
1959	0	25954	39748	39233	42752
1960	0	43211	31862	34033	41519
1961	0	35262	28623	35709	40368
1962	0	39527	44792	25850	37170
1963	0	41066	39473	31764	37880
1964	0	42515	36119	43568	40709
1965	0	29896	40943	36308	34501
1966	0	25031	41937	36049	31727
1967	0	36144	25913	42464	30084
1968	0	31223	30065	39085	38283
1969	0	41400	27348	40156	40235
1970	0	26951	32000	43429	40710
1971	0	30340	26978	39814	42971
1972	0	28776	30078	25779	33485
1973	0	40924	37883	28075	32451
1974	0	40434	41709	42957	30155
1975	0	37980	32410	37153	29388
1976	0	42911	25688	28278	42515
1977	0	41579	34693	29401	26375
1978	0	25586	28250	40729	30013
1979	0	40326	38833	40359	39232
1980	0	27749	29521	26384	31394
1981	0	37605	36705	31436	36503
1982	0	35437	42043	44009	37859
1983	0	33300	33498	25440	32147
1984	0	28411	35819	26318	33889
1985	0	44918	33083	33134	38796
1986	0	31859	28794	37258	43359
1987	0	41190	42254	28023	33168
1988	0	29849	34816	34622	38917
1989	0	34717	25133	27734	40961
1990	0	28879	31290	26870	37725
1991	0	36358	44499	39170	31292
1992	0	26945	43267	26416	28797
1993	0	29349	33957	25425	27544
1994	0	27917	31879	42404	40103
1995	0	43376	41006	31827	42204
1996	0	28548	42494	29099	39930
1997	0	33004	36460	34499	36764
1998	0	33570	35662	29945	41980
1999	0	40209	25411	34783	34258
2000	0	38840	43620	25489	43249
2001	0	39153	28535	33301	43243
2002	0	30494	31681	27547	37557
2003	0	43836	44476	27078	35092
2004	0	34411	38505	33532	31114
2005	0	29230	43931	38834	41418
2006	0	34334	34259	38001	34984
2007	0	39956	31129	33327	40180
2008	0	40574	28482	41875	25198
2009	0	38474	28561	29332	43377
2010	0	36660	39559	31388	25003
2011	0	36085	36827	35022	26894
2012	0	44417	27179	33318	38636
2013	0	35861	37831	26810	31735
2014	0	25881	32653	40087	30344
2015	0	40443	39030	39018	38598
2016	0	36704	25507	27089	36127
2017	0	39393	30761	28694	42542
2018	0	43463	30013	26042	39420
2019	0	39291	40866	27379	35508
2020	0	26192	37925	29964	41822
2021	0	38324	34414	38465	38900
2022	0	34164	38928	37273	32238
2023	0	42351	43935	29503	34056
2024	0	33430	28182	37304	36891
2025	0	31435	27885	32661	37238
2026	0	38688	32346	41662	29914
2027	0	37754	27075	32095	39121
2028	0	41383	44497	29890	38480
2029	0	41524	25799	37418	36770
2030	0	25902	37194	35838	40266
2031	0	39665	27166	25405	28752
2032	0	42035	38743	25445	39988
2033	0	34354	33365	28964	36486
2034	0	36627	42479	35109	28244
2035	0	39545	44751	44742	43250
2036	0	27167	25187	44301	30161
2037	0	27656	28523	31844	28722
2038	0	43937	42291	35521	37298
2039	0	36693	28304	33195	30289
2040	0	37295	39930	31808	41488
2041	0	35351	42481	32286	40414
2042	0	41916	34710	37532	30051
2043	0	26623	28929	33501	44048
2044	0	34184	39723	34740	39778
2045	0	36992	32857	41379	42682
2046	0	39241	26914	34938	37329
2047	0	43033	44781	27998	40884
2048	0	38486	35516	38993	25990
2049	0	34933	27908	26550	33680
2050	0	32781	33121	37006	33871
2051	0	36825	38504	42944	37184
2052	0	40085	26450	40510	42081
2053	0	25167	44238	32210	30721
2054	0	37331	39089	29436	35193
2055	0	31323	40135	32917	28744
2056	0	40550	43934	32353	30559
2057	0	44136	39283	30845	25075
2058	0	33645	29981	41917	42511
2059	0	44580	38575	27284	37112
2060	0	32610	28923	36625	31170
2061	0	36856	40779	41988	28703
2062	0	26747	37058	30286	31444
2063	0	27086	40723	25714	38437
2064	0	28369	27140	42200	28926
2065	0	28250	32427	26610	25100
2066	0	43794	44945	36516	44658
2067	0	26217	32708	28064	31737
2068	0	38030	42979	29690	43568
2069	0	36687	40656	31096	40257
2070	0	37265	28450	31932	44833
2071	0	38846	38268	27740	28658
2072	0	43744	30044	43065	32140
2073	0	33362	31211	32674	42970
2074	0	40692	34033	25652	39628
2075	0	37835	35959	28329	35816
2076	0	44665	36325	27162	43687
2077	0	31246	27277	31552	26254
2078	0	40798	38584	30999	32572
2079	0	40058	42463	30753	33392
2080	0	30787	40553	36308	31346
2081	0	30048	35562	36356	33954
2082	0	35392	28614	41661	39225
2083	0	41528	44458	39138	40648
2084	0	28306	33584	31627	25512
2085	0	25434	25621	31850	28888
2086	0	37760	27815	34379	34765
2087	0	29666	36099	34668	32898
2088	0	34052	25776	30398	38698
2089	0	36055	38231	36855	37232
2090	0	31354	28188	27085	41576
2091	0	36300	27326	37592	43819
2092	0	43206	32905	43501	31384
2093	0	38977	38568	38440	43294
2094	0	42531	25206	41954	42077
2095	0	25424	28196	43299	41621
2096	0	42945	44179	31251	28653
2097	0	37739	33944	34467	34649
2098	0	36211	41552	40886	32880
2099	0	28765	29340	32341	28084
2100	0	36919	36276	27602	36481
2101	0	26533	39327	28285	33501
2102	0	32384	31372	41418	32016
2103	0	31430	32062	36781	41471
2104	0	39401	36845	34392	26259
2105	0	39140	31503	28306	27290
2106	0	32482	36662	30840	26107
2107	0	27708	38548	25703	43974
2108	0	37976	43505	37737	25527
2109	0	36428	41592	26413	44194
2110	0	35185	37972	25782	35874
2111	0	37467	35265	38146	31787
2112	0	37005	29463	44300	42806
2113	0	33792	26188	38195	44267
2114	0	34992	33677	29585	41524
2115	0	28795	26007	29659	36092
2116	0	29888	28009	30898	44492
2117	0	38151	43492	33586	37954
2118	0	41815	26359	40564	28349
2119	0	28855	30312	32032	30642
2120	0	32514	31784	43707	35461
2121	0	26321	30418	34229	29895
2122	0	33795	26765	34829	29846
2123	0	42827	44582	43710	38627
2124	0	43258	26394	35438	29975
2125	0	31030	38014	28521	34526
2126	0	34067	41363	30257	34127
2127	0	30493	32715	26463	29801
2128	0	35382	40418	27564	30393
2129	0	43930	31396	27099	28347
2130	0	30161	41600	40163	32251
2131	0	29003	43839	36503	37458
2132	0	38567	28266	27642	41821
2133	0	28541	34528	32693	44978
2134	0	26745	39293	39103	35087
2135	0	35467	37507	40377	31776
2136	0	34406	43006	37561	29641
2137	0	37275	35876	31558	35876
2138	0	32946	31766	40132	32018
2139	0	40150	43673	44216	41849
2140	0	31908	28885	33849	27018
2141	0	27710	33755	28078	39394
2142	0	28943	43623	31662	41665
2143	0	36084	34687	35394	43094
2144	0	38352	44592	41027	43863
2145	0	41106	26866	31719	35810
2146	0	38335	32356	37911	39177
2147	0	28738	26018	44432	38901
2148	0	43853	31960	42328	34844
2149	0	41378	40507	34289	36920
2150	0	37581	35954	32312	37075
2151	0	39084	34961	42216	35157
2152	0	35328	43435	34413	41984
2153	0	33177	33263	39950	28732
2154	0	35584	37885	27686	26332
2155	0	42059	33017	32423	30430
2156	0	29022	36241	25055	39015
2157	0	38325	34081	28835	38459
2158	0	40144	44181	33916	31968
2159	0	34835	29008	41279	26782
2160	0	32633	36569	30843	41800
2161	0	25406	36895	26050	30549
2162	0	39577	28704	42981	32143
2163	0	32921	34447	43616	39394
2164	0	35478	25837	34385	42951
2165	0	27551	43735	36304	36218
2166	0	41796	40770	26568	29763
2167	0	30940	30654	36628	35315
2168	0	40388	39762	35992	33528
2169	0	25384	35205	41584	33109
2170	0	26896	44913	28778	43212
2171	0	44598	25962	43139	32324
2172	0	38653	31341	29983	26878
2173	0	34467	34308	43638	40125
2174	0	31836	41588	37199	28703
2175	0	34771	26784	32788	32675
2176	0	41082	34654	34956	31371
2177	0	38941	25497	28451	35811
2178	0	38332	43169	31886	25854
2179	0	41061	29218	25221	31134
2180	0	25121	41044	29894	34494
2181	0	42714	37547	36917	26835
2182	0	31135	38278	42253	34160
2183	0	30751	39248	33980	41532
2184	0	43738	33160	38391	40135
2185	0	44895	28388	35753	37593
2186	0	34653	27215	31964	32369
2187	0	37036	27212	42447	37445
2188	0	36297	27237	27709	40875
2189	0	30265	38587	36234	39351
2190	0	30129	35777	31934	36790
2191	0	31617	41496	29532	27578
2192	0	44762	41123	33667	28328
2193	0	29394	34915	25012	39785
2194	0	37334	29510	44961	36009
2195	0	32496	28875	27453	33694
2196	0	25034	31542	44492	37036
2197	0	39323	32045	42098	34279
2198	0	31801	27241	25537	27723
2199	0	25158	33346	29514	25170
2200	0	37644	28320	38372	33172
2201	0	36392	30962	31130	38745
2202	0	26684	32860	38085	26893
2203	0	25464	37881	44119	25603
2204	0	44612	29818	44930	33689
2205	0	42861	30330	28014	32223
2206	0	44727	40679	36874	32123
2207	0	28387	28841	43753	42556
2208	0	39462	31844	30304	42461
2209	0	29239	37903	29113	27288
2210	0	31757	36948	26448	26192
2211	0	26290	43423	39647	34765
2212	0	37043	38170	32109	41820
2213	0	35735	37990	42933	35150
2214	0	28311	31904	36912	41266
2215	0	34486	44683	43684	38038
2216	0	29185	38506	32325	26456
2217	0	40150	42365	25092	28680
2218	0	40829	42167	30876	36397
2219	0	29211	36193	40772	44944
2220	0	39770	29775	31848	42899
2221	0	27784	44090	39239	31667
2222	0	43120	36892	42247	42089
2223	0	32745	34755	32929	28158
2224	0	39428	38844	36419	32978
2225	0	33381	42808	36922	35876
2226	0	27318	34254	25348	38317
2227	0	25745	33882	29311	27954
2228	0	34067	25653	26192	30781
2229	0	31398	39729	28908	37331
2230	0	35462	28338	42926	42409
2231	0	28240	26370	27360	29133
2232	0	28066	42758	40580	43348
2233	0	30917	42917	42282	39709
2234	0	35011	40366	42965	29413
2235	0	32318	35220	38405	26009
2236	0	34489	40487	31038	38957
2237	0	25018	29542	44673	39777
2238	0	36822	44267	28346	35992
2239	0	25504	34195	32346	40649
2240	0	44130	27677	32534	27742
2241	0	37638	32418	41828	32287
2242	0	31704	27517	30336	38677
2243	0	38009	33871	44461	37306
2244	0	30737	38540	36307	43784
2245	0	39150	28679	27514	37932
2246	0	25867	27303	35806	36129
2247	0	42954	33744	39973	25358
2248	0	32180	33719	44246	40658
2249	0	36415	44238	38789	31986
2250	0	36251	42934	39593	35027
2251	0	26465	36889	41566	43848
2252	0	30977	34210	29196	37891
2253	0	28133	30682	31466	43327
2254	0	33965	26866	40668	28445
2255	0	29897	42520	42958	37436
2256	0	42691	27000	27526	32038
2257	0	43946	44280	42168	38544
2258	0	26277	39208	43004	36364
2259	0	43248	26748	40421	32848
2260	0	26961	26929	25958	37103
2261	0	27332	37194	29054	34328
2262	0	38251	39190	31981	34241
2263	0	30082	28908	43945	36855
2264	0	31800	42472	32669	28413
2265	0	31742	32709	28416	37415
2266	0	40586	39341	43795	27802
2267	0	35377	32701	40316	39018
2268	0	42955	37804	33395	38363
2269	0	26700	30731	34258	37265
2270	0	41378	43300	29414	26028
2271	0	32777	37455	41550	32883
2272	0	44014	39550	37189	33773
2273	0	44656	41089	30400	40075
2274	0	38878	41167	33550	33815
2275	0	42730	28282	33835	44646
2276	0	38782	35140	34607	37615
2277	0	42223	36525	29689	30041
2278	0	28288	30339	31042	38918
2279	0	36339	42434	37059	37804
2280	0	30782	43529	33179	32591
2281	0	40813	33586	32919	30154
2282	0	44441	29309	34158	40879
2283	0	35716	32746	28701	35924
2284	0	26163	39951	26390	25099
2285	0	35503	40487	38191	34082
2286	0	39464	37411	40615	34707
2287	0	34269	25945	37184	44980
2288	0	37221	37463	39329	36303
2289	0	26591	41950	41094	38717
2290	0	31380	38351	33073	26994
2291	0	36105	33937	37275	33778
2292	0	33595	26047	40578	32279
2293	0	27538	34163	37256	40397
2294	0	27114	37056	31187	31747
2295	0	34308	27845	38961	38590
2296	0	28638	37388	34157	25449
2297	0	29730	31468	37423	34743
2298	0	41043	36287	26174	29251
2299	0	32502	43793	41679	40947
2300	0	31101	39992	26564	29223
2301	0	34657	42048	44501	27802
2302	0	33958	34545	34948	38395
2303	0	33631	34639	38225	32828
2304	0	37756	42322	32250	44177
2305	0	35358	35011	44650	40135
2306	0	38736	44830	40702	28839
2307	0	25860	38831	29343	25921
2308	0	25121	28269	43012	32462
2309	0	43594	26527	42293	39815
2310	0	36805	25717	34843	31188
2311	0	42561	35179	38814	31230
2312	0	36982	33484	36335	28460
2313	0	44130	26701	39428	25131
2314	0	41559	42927	35450	36381
2315	0	37508	42412	31090	33134
2316	0	41970	28625	32173	36785
2317	0	39143	40517	40773	40918
2318	0	30782	32259	32309	33389
2319	0	35211	32583	32452	32004
2320	0	29708	27942	25685	42770
2321	0	38307	25574	41477	36028
2322	0	30233	25340	36781	37846
2323	0	42261	33284	33299	28714
2324	0	28008	26217	40237	36401
2325	0	29637	28915	32832	39933
2326	0	25031	44016	28542	25235
2327	0	41622	39767	28721	41693
2328	0	35110	39090	32649	41712
2329	0	25959	34183	31471	27431
2330	0	27932	31346	31488	43338
2331	0	32597	36991	41632	42592
2332	0	40305	25847	26549	42781
2333	0	25878	37145	43232	44359
2334	0	36753	34369	39059	36112
2335	0	35981	25624	31817	30420
2336	0	25325	38333	30626	41870
2337	0	26860	32743	37917	30415
2338	0	43072	27125	29108	41218
2339	0	34352	33924	31208	34978
2340	0	30155	27439	41484	38389
2341	0	31695	30454	35113	38327
2342	0	26532	35971	44889	40262
2343	0	32137	32948	36508	29301
2344	0	34485	37292	43027	32701
2345	0	33436	33012	41922	40936
2346	0	39743	34389	32683	40734
2347	0	43463	29325	30120	37893
2348	0	25942	43115	44856	32084
2349	0	33710	26917	32431	31561
2350	0	29423	33517	42967	32116
2351	0	43304	29638	28026	25433
2352	0	29348	39136	28088	42079
2353	0	29165	43885	28534	40317
2354	0	44701	37514	39486	31392
2355	0	27541	34234	31835	33996
2356	0	37509	37643	32011	31996
2357	0	32596	44257	35781	26534
2358	0	28913	25024	30623	27774
2359	0	26086	39651	27681	38270
2360	0	28394	30091	42125	38476
2361	0	32409	36718	33746	39847
2362	0	33695	41239	28843	41202
2363	0	34694	28006	33149	43009
2364	0	33400	31301	27577	38525
2365	0	38311	36309	37329	44622
2366	0	41888	38897	32125	30038
2367	0	43782	26929	32438	44906
2368	0	43038	28190	31496	27225
2369	0	32741	25164	28481	31143
2370	0	26540	31062	36399	42915
2371	0	37234	29656	41101	28408
2372	0	34755	27032	43982	36853
2373	0	31469	37424	27873	36831
2374	0	39363	26279	42665	25341
2375	0	26130	29957	41342	31282
2376	0	34544	30459	28429	34721
2377	0	31313	30167	26919	37151
2378	0	37259	35969	28902	29724
2379	0	41046	29629	33297	28443
2380	0	28599	26222	28311	38512
2381	0	27151	33836	31313	29891
2382	0	41274	27566	44063	42584
2383	0	32041	37420	30313	39877
2384	0	30886	43938	34868	32142
2385	0	34575	34076	30101	38888
2386	0	39103	40019	33034	37418
2387	0	44692	35888	38642	38841
2388	0	28596	37946	38626	25420
2389	0	36722	44505	40750	27567
2390	0	36014	32996	31858	43348
2391	0	26114	30472	43282	33192
2392	0	36130	36632	44815	26362
2393	0	38609	25885	35123	31486
2394	0	30339	42993	40185	31788
2395	0	30771	26285	42012	36960
2396	0	30118	27478	29689	38061
2397	0	34793	44253	26836	33166
2398	0	30840	25153	39675	34554
2399	0	40715	26932	26893	41257
2400	0	40860	33827	28152	38882
2401	0	36527	44735	30129	36715
2402	0	42744	33852	41641	34051
2403	0	42956	41301	31725	29321
2404	0	38172	41514	29248	30097
2405	0	43712	29939	42802	27749
2406	0	43381	38509	42161	34908
2407	0	40796	25381	28194	35348
2408	0	27815	41966	39317	44973
2409	0	31602	42572	41485	44853
2410	0	31754	35352	40163	30410
2411	0	38325	25822	37721	36087
2412	0	43913	27682	27698	41504
2413	0	26386	37068	25702	26931
2414	0	34294	29932	26502	40854
2415	0	37037	37842	40601	27621
2416	0	27299	28481	34156	25933
2417	0	31445	30306	30996	26695
2418	0	39715	26023	31456	36232
2419	0	38625	28970	31890	35817
2420	0	30859	36191	30656	35137
2421	0	37912	32325	28104	26968
2422	0	39000	40532	34758	32047
2423	0	43666	42708	27469	25880
2424	0	30596	31145	29469	38496
2425	0	38646	32375	34515	25516
2426	0	32720	30788	38312	38849
2427	0	38276	26796	38573	39913
2428	0	43192	29907	25087	26811
2429	0	42921	26635	25151	36337
2430	0	43023	42387	27138	25357
2431	0	29144	40522	37014	41250
2432	0	43079	30274	27830	36541
2433	0	43942	32482	43818	37747
2434	0	33972	35837	38270	34043
2435	0	33412	35114	26186	33832
2436	0	40000	41877	25278	42419
2437	0	44430	41079	38168	31066
2438	0	35767	25645	34994	39560
2439	0	31955	28261	37034	34310
2440	0	31670	37323	27561	44851
2441	0	39642	41710	40231	32917
2442	0	28910	43712	37258	44334
2443	0	37458	42255	37883	31595
2444	0	43300	28885	30896	32996
2445	0	27950	25982	32590	35961
2446	0	27755	34741	35699	32679
2447	0	29200	44574	28084	33670
2448	0	36180	30592	41028	42336
2449	0	34484	35913	26308	42948
2450	0	28074	41012	25126	31138
2451	0	37068	35469	44709	28207
2452	0	26293	40033	43605	37465
2453	0	30530	42591	28840	33058
2454	0	42091	42799	29892	37481
2455	0	28261	32035	34887	36170
2456	0	28503	34784	43297	36847
2457	0	32758	28524	33366	44147
2458	0	28984	33152	36377	40984
2459	0	28296	41698	44653	30755
2460	0	41232	37649	35361	43897
2461	0	29880	30252	40448	26801
2462	0	30539	34579	36215	30122
2463	0	43640	39916	27799	28048
2464	0	42826	28999	27184	43381
2465	0	42689	39290	31448	30686
2466	0	38706	44498	31465	36953
2467	0	25825	31114	37216	31574
2468	0	37264	38077	44191	31247
2469	0	38853	37328	37869	38713
2470	0	31094	35722	35885	26785
2471	0	40242	30641	41954	42426
2472	0	28639	38733	33749	30742
2473	0	43789	32648	41112	39912
2474	0	29175	34896	32260	29980
2475	0	40234	30580	28210	30302
2476	0	34931	35051	41883	42924
2477	0	27910	25878	40912	43749
2478	0	38404	38601	32739	39137
2479	0	36419	26385	29378	25750
2480	0	32201	43431	41190	32996
2481	0	36612	28664	39232	43562
2482	0	34714	33248	44419	33669
2483	0	38148	31786	27930	29255
2484	0	25570	28970	38519	31188
2485	0	35578	26518	31062	43064
2486	0	36685	34068	40647	44367
2487	0	29728	38359	25396	33216
2488	0	29179	40497	39866	28046
2489	0	35610	26388	33179	35943
2490	0	44643	28940	36227	44196
2491	0	33789	36189	37903	35900
2492	0	37483	40348	41332	43718
2493	0	39387	42286	44739	39723
2494	0	42780	34059	30282	33473
2495	0	37385	28205	34766	44028
2496	0	27705	26539	44177	41536
2497	0	28954	26016	39897	40953
2498	0	25938	27858	39527	32312
2499	0	28407	31888	26851	30885
2500	0	25113	43751	44296	42932
2501	0	44792	39307	38114	28466
2502	0	25383	39788	35462	34622
2503	0	26829	36022	31948	34186
2504	0	33273	35141	38042	34221
2505	0	44988	43104	26203	43227
2506	0	29991	37998	36348	43314
2507	0	25574	41750	44224	43844
2508	0	35477	27017	27108	42430
2509	0	30587	30167	27949	37296
2510	0	39827	34532	35173	29431
2511	0	32609	31464	28513	37610
2512	0	39048	34874	28772	29171
2513	0	29959	43499	38717	40226
2514	0	44784	37896	38835	36664
2515	0	26616	38883	27279	44805
2516	0	32930	44584	32288	40591
2517	0	30854	25112	29382	38451
2518	0	32532	40638	26046	32713
2519	0	38516	25887	38560	28629
2520	0	32276	34083	44014	34443
2521	0	31256	37526	31408	32372
2522	0	25476	38380	42883	41572
2523	0	37050	26526	34137	37981
2524	0	38125	29217	26256	42630
2525	0	27976	25819	25977	30798
2526	0	42745	25019	27378	38008
2527	0	44579	35845	40735	27463
2528	0	39819	40905	33928	39467
2529	0	29755	39962	38649	37274
2530	0	32933	32642	41690	33354
2531	0	42757	38080	31793	31202
2532	0	30429	31024	38214	38216
2533	0	41442	32972	40638	28039
2534	0	39852	33501	33569	44123
2535	0	35650	26622	29929	38261
2536	0	35931	33582	32222	28032
2537	0	43745	26398	32737	26405
2538	0	27445	39033	35257	38966
2539	0	42342	35953	43177	27938
2540	0	34868	27577	27838	37598
2541	0	36101	37421	35367	36310
2542	0	43713	36610	31117	35940
2543	0	26156	35314	37819	25057
2544	0	40227	39429	40106	43204
2545	0	26545	40979	41581	44494
2546	0	33389	43433	27384	31572
2547	0	30291	35779	30332	35585
2548	0	26093	40215	32082	32490
2549	0	34545	37151	43604	40780
2550	0	29907	30115	35930	30189
2551	0	43767	31284	41934	32699
2552	0	31311	43394	28566	33866
2553	0	26905	27713	32412	41183
2554	0	29357	31660	28542	40170
2555	0	44512	27458	42968	36133
2556	0	43445	37129	35312	39138
2557	0	30857	42722	26889	36496
2558	0	41456	29745	32150	25149
2559	0	26926	38384	36887	40272
2560	0	41859	37856	36863	41836
2561	0	34478	37363	25340	43283
2562	0	42513	28166	40110	40944
2563	0	36079	33367	25124	39404
2564	0	33794	27582	38325	44522
2565	0	30719	39427	34381	40344
2566	0	39857	42645	38562	37719
2567	0	37500	28516	33363	36590
2568	0	25728	42685	41975	40448
2569	0	39628	26043	29237	31906
2570	0	30971	42124	39691	43277
2571	0	31362	44445	30026	33578
2572	0	43485	36023	41847	31605
2573	0	37814	42310	44994	25576
2574	0	26193	28679	32738	43715
2575	0	30296	29173	40715	25606
2576	0	26948	36466	30284	33796
2577	0	36189	25310	38804	38622
2578	0	36076	39478	36034	29472
2579	0	29497	42582	27620	30399
2580	0	29665	43338	31967	26911
2581	0	44341	31750	41066	41139
2582	0	39093	37272	31414	44299
2583	0	26674	39720	36488	41498
2584	0	43186	38798	36894	28420
2585	0	28755	34985	37109	25458
2586	0	28776	25163	31741	35864
2587	0	31253	34950	44569	39643
2588	0	34536	29267	43677	30487
2589	0	41857	29438	31248	35078
2590	0	27643	27357	43855	38730
2591	0	37329	35710	29860	39627
2592	0	33192	35716	25506	29166
2593	0	28083	40350	26285	31764
2594	0	31553	34053	31967	26450
2595	0	40176	34633	41426	37865
2596	0	42895	37636	29790	29098
2597	0	41563	43248	29290	34521
2598	0	44605	37345	29457	36858
2599	0	28809	36438	33525	31567
2600	0	32434	43678	25989	25176
2601	0	43178	33995	32763	28651
2602	0	35202	25291	37895	39966
2603	0	31001	41236	32989	28565
2604	0	39350	38168	30665	26064
2605	0	30348	39042	34393	28748
2606	0	29464	39037	36160	28766
2607	0	27691	28595	36562	39863
2608	0	30072	26432	35871	36183
2609	0	32189	26827	26812	32702
2610	0	36650	40438	43437	38506
2611	0	41669	37703	26833	28970
2612	0	28398	40079	25023	29300
2613	0	30981	32786	37710	28401
2614	0	38244	29662	27592	28302
2615	0	36978	26350	27942	31311
2616	0	28012	35529	27360	37718
2617	0	25846	38930	28161	43046
2618	0	34100	40191	38432	34682
2619	0	25752	27154	25882	41586
2620	0	31051	29204	28179	42535
2621	0	27211	30558	42618	36525
2622	0	44272	41531	37242	42622
2623	0	41179	28595	44937	44530
2624	0	44721	43502	35690	28638
2625	0	27600	25303	35923	37244
2626	0	34334	27491	25004	29562
2627	0	25016	25005	41383	32024
2628	0	25626	42728	34704	36381
2629	0	36192	44297	41955	30088
2630	0	31507	27989	37221	32336
2631	0	42992	26985	43736	36707
2632	0	34272	32755	25248	26864
2633	0	38966	40800	31067	29701
2634	0	35963	31084	32104	34792
2635	0	38319	37848	43226	31728
2636	0	40758	44709	29762	26727
2637	0	25047	31662	27179	25866
2638	0	36334	25298	33370	30540
2639	0	37264	33927	32816	31444
2640	0	42999	29179	39624	32882
2641	0	39397	38060	32226	37279
2642	0	40979	37344	38080	39284
2643	0	35435	35003	33328	36288
2644	0	36640	40152	32806	33110
2645	0	38630	38501	35165	30517
2646	0	40518	26551	42999	39666
2647	0	33664	28954	32755	27509
2648	0	32445	42381	42209	38681
2649	0	31619	29665	34323	43664
2650	0	32900	27041	41849	28537
2651	0	41514	35126	28468	30353
2652	0	30695	36854	34374	44944
2653	0	36563	34056	36917	42507
2654	0	40776	27137	34852	43500
2655	0	41820	26314	35038	38262
2656	0	34856	37042	28730	35797
2657	0	30597	43402	34214	38906
2658	0	29548	32058	28993	34534
2659	0	38891	42152	25055	28151
2660	0	34699	27333	42177	43768
2661	0	37550	26725	40041	37955
2662	0	43269	38071	30280	32377
2663	0	34272	34623	25205	43723
2664	0	43890	25169	27905	42185
2665	0	25287	32414	38739	31184
2666	0	43895	34594	30030	29101
2667	0	25087	40400	39498	25644
2668	0	34140	38509	26623	38272
2669	0	42385	35911	31800	28858
2670	0	29405	37826	35828	35093
2671	0	39146	33760	43615	27804
2672	0	43776	42737	29875	28190
2673	0	26543	27790	27634	41684
2674	0	34658	40430	38837	39554
2675	0	37599	37761	33036	25278
2676	0	25394	25632	41771	35235
2677	0	26043	25860	28468	44269
2678	0	29683	33410	36792	40523
2679	0	29455	35730	33708	36671
2680	0	43244	31832	35294	27253
2681	0	43013	32216	27143	38276
2682	0	40337	25883	30458	27195
2683	0	32982	43869	38607	31961
2684	0	25391	36052	36225	34391
2685	0	32235	26883	28893	25924
2686	0	31564	42866	41995	26924
2687	0	36360	36647	25579	37068
2688	0	26389	39607	39071	28325
2689	0	28411	27744	40796	25013
2690	0	38250	26515	26738	41811
2691	0	25928	44452	35102	44147
2692	0	29786	31820	32811	42080
2693	0	44249	44949	36912	25394
2694	0	32279	28768	39911	25175
2695	0	40319	40555	34731	38107
2696	0	28571	27731	37298	34628
2697	0	28204	41319	39599	42785
2698	0	35215	41612	26609	26814
2699	0	34428	41613	34730	39801
2700	0	37266	38960	28801	38233
2701	0	32327	26625	40342	43691
2702	0	34527	29857	36850	42130
2703	0	36671	41758	34428	44268
2704	0	36599	31249	40182	31368
2705	0	32816	36909	25014	34152
2706	0	39472	28731	33600	28552
2707	0	32833	38458	41965	29428
2708	0	31504	27326	43238	31231
2709	0	31885	37902	37254	38281
2710	0	39217	27999	38442	25791
2711	0	27186	41914	38477	25954
2712	0	27749	27956	44201	39406
2713	0	42288	30252	29506	31686
2714	0	29044	43404	30508	42159
2715	0	39959	32915	29176	42094
2716	0	29470	30440	42550	41587
2717	0	41752	41252	38451	32091
2718	0	41552	26493	40299	33569
2719	0	25648	27863	39284	36797
2720	0	30080	28185	25593	28961
2721	0	26856	30907	42484	37824
2722	0	44341	34905	39081	40551
2723	0	41407	29980	37205	29642
2724	0	36298	29023	28461	43024
2725	0	27935	31563	35615	39972
2726	0	32576	36178	40421	44058
2727	0	42801	29169	39931	42186
2728	0	25297	37430	36885	39155
2729	0	44199	32187	44194	29605
2730	0	43603	40644	40076	43342
2731	0	26424	42646	42487	30751
2732	0	41637	33772	38142	32653
2733	0	39947	26337	28581	25001
2734	0	38057	25360	29186	41305
2735	0	28292	34175	27889	42189
2736	0	34180	34566	34186	43475
2737	0	30906	39645	33922	36642
2738	0	42468	28014	35332	27386
2739	0	35304	25493	26409	26641
2740	0	30259	42576	37742	26372
2741	0	26000	28447	31725	32335
2742	0	32751	43479	41297	44648
2743	0	38066	28340	42765	40231
2744	0	40340	36893	43152	26872
2745	0	26653	28554	26764	25407
2746	0	37431	25323	28523	25224
2747	0	28850	30508	39761	28652
2748	0	34962	27257	28533	32721
2749	0	42495	42358	26295	34114
2750	0	25310	42731	26572	39242
2751	0	39541	30186	41956	42533
2752	0	40426	44222	25348	39927
2753	0	43381	42576	34506	32450
2754	0	26708	44879	40827	32406
2755	0	28411	43108	33331	37300
2756	0	42635	43796	33599	27798
2757	0	31971	34179	37730	38719
2758	0	34091	29384	44935	31253
2759	0	27729	42341	27279	27684
2760	0	25520	40167	40772	41976
2761	0	42166	32871	38836	38824
2762	0	40045	37461	35823	35646
2763	0	37690	36962	39046	25352
2764	0	36720	30789	38500	38021
2765	0	30851	26935	30419	27159
2766	0	42317	37501	34241	38830
2767	0	28717	25881	35069	42179
2768	0	42661	30696	33940	37370
2769	0	37866	25104	25085	29662
2770	0	25009	39922	32873	33634
2771	0	36023	35213	31089	41255
2772	0	29387	34494	27477	34016
2773	0	25129	40608	37133	25910
2774	0	27114	40031	40975	41013
2775	0	37262	36449	42860	33821
2776	0	37044	38576	43887	42221
2777	0	26762	42339	39596	44227
2778	0	28450	39793	32641	34880
2779	0	34569	43487	36742	38094
2780	0	35767	43929	35750	34758
2781	0	34818	35820	39073	41036
2782	0	32641	27649	30235	29846
2783	0	42293	32447	26730	34230
2784	0	32267	29140	43213	30305
2785	0	33438	38306	31839	33821
2786	0	42356	36584	37152	33703
2787	0	29067	36746	37391	41218
2788	0	39563	43936	37840	28003
2789	0	25122	32100	40414	28319
2790	0	39951	41432	30614	25562
2791	0	37063	26326	33570	35213
2792	0	32332	36620	32723	29015
2793	0	30697	29369	37244	42219
2794	0	42186	36902	31338	26505
2795	0	25688	38944	28543	40944
2796	0	37268	42926	36631	35722
2797	0	34132	28266	42117	33345
2798	0	31519	27507	40126	28747
2799	0	43596	33355	25517	32899
2800	0	39730	36065	38028	37094
2801	0	27803	44780	40130	34213
2802	0	27757	34926	33786	42269
2803	0	34148	31467	30689	29490
2804	0	26589	35420	31440	28745
2805	0	34538	30820	41162	40813
2806	0	28268	37030	40365	31123
2807	0	30106	36978	28600	41518
2808	0	28333	32573	38350	36439
2809	0	34261	25811	25927	30502
2810	0	34639	34642	27833	42386
2811	0	33598	34859	40051	34681
2812	0	31742	42316	27797	42798
2813	0	29013	41056	25809	27981
2814	0	27996	27349	27371	39688
2815	0	42319	37973	26977	31105
2816	0	40819	33277	40026	27875
2817	0	37536	28599	38615	42998
2818	0	28209	29162	25189	42198
2819	0	29288	29903	44789	33483
2820	0	35798	33922	39157	27029
2821	0	30854	32786	26721	38021
2822	0	30311	26113	34921	33054
2823	0	34796	37171	43290	33747
2824	0	25344	41685	35044	41406
2825	0	35012	32556	33894	40205
2826	0	25933	29624	42621	44985
2827	0	37087	33151	33629	34875
2828	0	36451	31744	26515	34672
2829	0	40690	27155	30652	32792
2830	0	34532	37087	32210	30041
2831	0	35033	31025	28837	31523
2832	0	44278	25053	37667	38149
2833	0	34059	40526	37513	26131
2834	0	25810	32439	30889	28065
2835	0	29236	26692	33446	41908
2836	0	30251	34003	27428	36688
2837	0	26858	35065	33559	36918
2838	0	25749	33113	36769	26917
2839	0	37705	44445	27207	44306
2840	0	44941	33334	29000	44962
2841	0	40321	26765	36052	29538
2842	0	43833	33743	30547	30327
2843	0	42308	40417	26690	41088
2844	0	42894	33752	32273	38253
2845	0	37322	31699	30213	40001
2846	0	38618	29152	25322	38737
2847	0	26528	25962	27644	29085
2848	0	41137	28150	30995	37566
2849	0	30761	40452	36592	41506
2850	0	32758	35526	28009	32800
2851	0	44912	40016	33845	38310
2852	0	38911	39920	37925	39080
2853	0	39230	26703	36334	28045
2854	0	31104	30734	33364	37153
2855	0	31837	39132	41663	44458
2856	0	42489	38910	31844	33516
2857	0	27041	39959	43694	30880
2858	0	32657	38793	44784	25282
2859	0	36453	37511	43528	39224
2860	0	39465	25834	37805	28908
2861	0	26914	33456	27959	40101
2862	0	28605	29281	33932	29364
2863	0	44383	32286	33539	28328
2864	0	40558	32947	30295	27107
2865	0	31029	41433	29795	35002
2866	0	43268	33182	32291	32515
2867	0	30248	26340	35163	29428
2868	0	32071	31285	37826	41635
2869	0	44095	36210	39846	43828
2870	0	29830	42490	34601	32156
2871	0	33104	33912	43970	38442
2872	0	31090	33753	29865	41723
2873	0	25486	37532	34878	43421
2874	0	42467	25657	36658	39881
2875	0	38479	29621	42945	28183
2876	0	41807	44342	44892	30630
2877	0	35005	33527	29636	27456
2878	0	44033	34437	35546	42644
2879	0	26924	44703	40847	31006
2880	0	28342	39395	25637	32751
2881	0	43213	39212	41746	42700
2882	0	43062	30031	25735	43882
2883	0	37807	30963	38530	25098
2884	0	39091	35456	28147	44036
2885	0	44138	32162	40899	44202
2886	0	33756	34494	32558	41501
2887	0	35250	27445	38407	38167
2888	0	33453	43468	31232	37551
2889	0	40319	40253	41239	26516
2890	0	34575	33156	39691	35354
2891	0	29384	43592	38916	42871
2892	0	42474	42882	31116	44899
2893	0	27448	42801	39570	43441
2894	0	40704	40811	31166	42116
2895	0	33778	36170	33805	36506
2896	0	25435	42422	43633	31878
2897	0	36788	27216	34396	29550
2898	0	36965	44279	34289	42069
2899	0	43358	26130	37500	28111
2900	0	26645	39721	40699	25081
2901	0	43015	37077	32109	38014
2902	0	25129	41714	29035	28080
2903	0	44266	35539	34994	36942
2904	0	28280	29991	44154	26315
2905	0	25849	39411	39389	30740
2906	0	29090	31466	44872	34920
2907	0	26321	27529	34023	33128
2908	0	27329	28524	26334	31678
2909	0	28657	43093	38428	32182
2910	0	28019	43467	39263	25010
2911	0	39211	28456	39595	27651
2912	0	44736	27456	30759	42892
2913	0	38199	36241	29811	32936
2914	0	38010	33883	25306	35990
2915	0	28810	33752	27377	28831
2916	0	33172	37037	34603	28623
2917	0	44279	37996	40148	26359
2918	0	30600	31156	26176	40140
2919	0	44245	40709	30825	44591
2920	0	31329	36339	44693	36751
2921	0	39484	30210	26108	31903
2922	0	40650	33029	32481	31143
2923	0	37486	44306	43278	41883
2924	0	42245	37868	35037	42827
2925	0	33944	38278	30810	43869
2926	0	39437	27944	29772	29883
2927	0	33960	35193	43121	33040
2928	0	25442	44214	34460	36707
2929	0	36014	34038	35276	39275
2930	0	33804	40080	39250	41675
2931	0	42666	37589	33411	29109
2932	0	41450	32445	36685	36141
2933	0	33051	30981	33723	44639
2934	0	36395	41014	32038	36270
2935	0	36736	35438	34942	39251
2936	0	44380	28847	44125	29139
2937	0	38050	32763	26260	36737
2938	0	29830	37421	42280	28860
2939	0	33322	36919	31745	26590
2940	0	39064	35939	28823	36066
2941	0	31746	36273	42078	44328
2942	0	28011	44258	28566	36914
2943	0	30052	25650	30724	25355
2944	0	44177	36689	43936	40259
2945	0	41599	39501	34251	32597
2946	0	33265	28703	27008	34526
2947	0	41902	28293	28787	29375
2948	0	31100	31437	40308	43413
2949	0	44358	30248	29832	42847
2950	0	36765	41902	37998	27526
2951	0	33230	35096	35767	44300
2952	0	25972	43096	30982	29994
2953	0	43338	39840	39034	27537
2954	0	28574	40069	25734	43340
2955	0	34152	36010	33793	38978
2956	0	27024	30673	26598	29363
2957	0	44688	37850	29948	26661
2958	0	38809	38811	31134	29913
2959	0	26545	34050	29036	42660
2960	0	37033	36594	30626	29022
2961	0	41542	37458	30276	36286
2962	0	28118	36880	36515	44163
2963	0	38435	28625	37111	43168
2964	0	44671	31319	28288	27222
2965	0	30931	25492	42947	31828
2966	0	28808	40580	37622	25071
2967	0	32342	31927	42360	43627
2968	0	35800	35974	30078	41147
2969	0	25565	42545	34742	31842
2970	0	28685	34226	38619	44409
2971	0	31390	40937	43794	40304
2972	0	30389	44803	42471	44266
2973	0	35262	31882	29132	43621
2974	0	39281	33235	31312	26208
2975	0	36169	42362	25626	42064
2976	0	43490	40609	29470	31828
2977	0	32115	37414	25532	44342
2978	0	27863	34771	40880	40535
2979	0	39260	36745	40483	31599
2980	0	40916	30225	43203	39223
2981	0	44130	41043	39173	37256
2982	0	25408	42044	27048	39906
2983	0	36708	44543	30698	33100
2984	0	43763	36671	37124	33279
2985	0	37274	25788	25286	33861
2986	0	31303	43922	33051	38976
2987	0	40688	36510	27284	38683
2988	0	30557	36067	32455	42043
2989	0	30225	33605	26693	29668
2990	0	33327	42133	37978	35420
2991	0	39663	35554	42663	32828
2992	0	35214	25773	34331	27523
2993	0	30840	40965	37904	43033
2994	0	34773	31725	27026	35700
2995	0	30838	34692	31433	35596
2996	0	33865	36092	34045	33961
2997	0	36311	25520	39437	39174
2998	0	37275	43850	26851	31866
2999	0	37691	35580	29052	42500
3000	0	34598	41250	35912	38422
3001	0	27485	40639	31818	36471
3002	0	36468	43613	40731	31808
3003	0	30780	39616	25876	34118
3004	0	25276	25663	28236	31792
3005	0	29664	41138	41225	37781
3006	0	27024	33842	35361	44307
3007	0	32431	28520	26704	37732
3008	0	28596	34337	39806	26388
3009	0	35643	31527	27512	35443
3010	0	26263	28269	44794	30040
3011	0	33947	30437	30811	36386
3012	0	26538	28266	34617	26223
3013	0	36793	42116	36033	33153
3014	0	25828	38000	43534	37072
3015	0	33880	31996	25673	36272
3016	0	30796	25174	35183	39475
3017	0	44994	39926	42698	26329
3018	0	44093	25411	34148	31108
3019	0	43085	38626	30871	40547
3020	0	36446	42497	36607	41227
3021	0	25079	35000	39662	30550
3022	0	33531	30355	43273	35359
3023	0	40691	27642	44874	42628
3024	0	28464	27340	41554	39072
3025	0	36692	33794	30676	31911
3026	0	38908	32447	26854	39112
3027	0	29755	27682	44119	41350
3028	0	32292	39025	36964	34543
3029	0	41269	30480	26971	31778
3030	0	41083	35415	36246	25795
3031	0	37696	26515	37399	40115
3032	0	37986	25472	41469	31858
3033	0	25556	40644	43533	33862
3034	0	38838	29146	26705	26907
3035	0	43026	32204	38240	27020
3036	0	29199	36908	37861	35554
3037	0	32450	36753	27527	34196
3038	0	25904	42462	32078	34836
3039	0	37475	28508	44119	34334
3040	0	42217	25967	36612	26877
3041	0	26101	30508	29948	39550
3042	0	43692	32492	44709	26703
3043	0	33067	34393	38685	33078
3044	0	31155	42682	40700	36754
3045	0	43047	29273	38326	37165
3046	0	39114	28685	33530	32822
3047	0	28227	31151	39001	25020
3048	0	44579	36199	40817	38831
3049	0	37291	40814	26993	35500
3050	0	36461	29526	33322	28926
3051	0	37768	38817	37330	44614
3052	0	28810	34754	39938	35878
3053	0	28301	44725	44356	31275
3054	0	43792	38859	27615	26561
3055	0	36429	28641	37456	44393
3056	0	31630	37948	43311	25482
3057	0	26056	29517	30379	31406
3058	0	39360	29271	41202	41669
3059	0	43694	36899	41971	32364
3060	0	40933	40705	41907	37367
3061	0	41828	33520	29300	39777
3062	0	34161	35944	33050	44718
3063	0	31946	34838	40839	34614
3064	0	28709	43007	38588	43017
3065	0	36923	35046	43179	43858
3066	0	40715	29884	37876	26236
3067	0	25103	39722	34277	27239
3068	0	25494	41687	25197	27271
3069	0	25785	34325	36922	34480
3070	0	34819	41598	39344	40506
3071	0	43530	44079	29163	30818
3072	0	40723	29258	40240	34447
3073	0	27880	38255	32401	25005
3074	0	42312	31311	43995	36330
3075	0	42725	29386	42916	44301
3076	0	32897	31320	42668	40272
3077	0	43542	37408	29737	44222
3078	0	44969	42366	43634	42063
3079	0	34485	36636	31085	28582
3080	0	28745	42063	43558	41930
3081	0	37438	38564	39622	40421
3082	0	28867	33822	27913	30877
3083	0	43446	44828	37322	27617
3084	0	37547	27394	38754	39897
3085	0	36552	26591	41904	29724
3086	0	30595	28600	43716	34171
3087	0	26457	35973	36204	34416
3088	0	37771	36002	26894	33449
3089	0	30398	25092	41603	26781
3090	0	39700	44964	33601	28907
3091	0	44765	31389	30101	40663
3092	0	40518	27350	30241	31295
3093	0	31747	31046	29763	37617
3094	0	30952	41600	40062	27584
3095	0	43590	29739	36903	31097
3096	0	36599	36711	44017	41619
3097	0	29795	36865	36226	42258
3098	0	34145	30481	44244	34731
3099	0	42206	28575	37514	35523
3100	0	29151	44762	30375	25392
3101	0	28820	35375	43043	26024
3102	0	39530	32778	40646	29930
3103	0	40629	39382	32303	27347
3104	0	43051	43287	43753	38021
3105	0	39633	34015	44162	41689
3106	0	37322	43628	33502	39850
3107	0	44698	28684	34278	43146
3108	0	30272	28583	38653	27976
3109	0	35324	32245	35167	30846
3110	0	35653	27486	37837	31234
3111	0	42017	44613	28031	32908
3112	0	38413	25257	29537	26089
3113	0	41316	40825	42907	36954
3114	0	36451	44274	28945	42880
3115	0	43162	26124	26321	26034
3116	0	31051	38125	40855	25896
3117	0	31407	43463	41176	32741
3118	0	34608	41450	25818	39800
3119	0	26413	28277	33486	32202
3120	0	32176	32787	35171	42190
3121	0	40709	38144	43001	44554
3122	0	43441	31024	31216	40668
3123	0	35182	27193	42491	28971
3124	0	35172	38217	44354	36832
3125	0	34908	44548	35665	39803
3126	0	33746	37290	41874	32525
3127	0	44821	36556	35767	35665
3128	0	43234	25009	32832	42619
3129	0	38041	44961	27759	36067
3130	0	43109	27634	41267	43741
3131	0	31658	36179	35003	40795
3132	0	37949	40316	28763	26923
3133	0	30612	26987	35612	38808
3134	0	39650	34528	28363	35382
3135	0	31930	31992	36797	29611
3136	0	44045	40519	39728	35680
3137	0	33921	41932	44637	27866
3138	0	32922	31889	38303	39338
3139	0	41181	29506	34852	38166
3140	0	35660	40000	29511	35743
3141	0	28896	31130	35486	38711
3142	0	25638	38071	39755	27703
3143	0	44902	33996	33383	30653
3144	0	39226	26975	38165	28388
3145	0	44278	41656	39058	34077
3146	0	32831	44576	31187	39772
3147	0	28917	33077	27964	39748
3148	0	44623	41148	37268	32585
3149	0	38948	29789	37897	31149
3150	0	27665	25794	32888	29108
3151	0	44449	43639	29739	38720
3152	0	35440	41357	41019	42034
3153	0	26551	38666	37535	43254
3154	0	38175	36441	30956	42006
3155	0	31253	36299	29351	31594
3156	0	41474	25143	34817	42516
3157	0	37321	35571	28258	27830
3158	0	32271	32577	41715	34300
3159	0	40482	33490	31557	35193
3160	0	28074	32955	28111	42497
3161	0	37711	42668	28895	35287
3162	0	25805	40167	38617	40085
3163	0	41047	40098	29421	40922
3164	0	39767	42316	25490	27115
3165	0	25734	37195	33624	33762
3166	0	33286	38955	37443	43860
3167	0	25837	26850	40932	28341
3168	0	26856	25795	31237	44134
3169	0	35600	33380	36271	43705
3170	0	32998	29430	38861	42141
3171	0	44592	42204	29838	40448
3172	0	31889	42657	35237	42624
3173	0	35930	42422	32746	42945
3174	0	30963	42448	33313	36078
3175	0	30393	32710	41348	34293
3176	0	28001	43948	31794	44860
3177	0	39939	44493	32202	28532
3178	0	42699	30607	40548	25969
3179	0	36936	40456	25679	33638
3180	0	42397	42381	42217	41660
3181	0	44452	30401	26824	41614
3182	0	38462	37691	44344	28207
3183	0	38100	31564	27131	28041
3184	0	33513	33260	42088	35969
3185	0	41187	43435	42513	31155
3186	0	40167	37734	38622	36802
3187	0	39720	42397	42410	42924
3188	0	32482	41209	43133	40120
3189	0	33746	29357	33484	37373
3190	0	31406	40095	30092	27120
3191	0	38348	38867	44643	31890
3192	0	38363	28472	43798	43830
3193	0	26484	28331	26800	34805
3194	0	33941	30552	35930	28953
3195	0	38154	28881	42631	42509
3196	0	25669	43176	42064	28944
3197	0	34368	44970	42597	40680
3198	0	42915	31162	43937	34056
3199	0	28785	30532	33706	35697
3200	0	38370	39645	25089	37162
3201	0	29024	31305	29010	32860
3202	0	32215	38231	43284	28811
3203	0	31334	39784	28932	38498
3204	0	26348	39843	35080	39476
3205	0	37995	28441	25752	36166
3206	0	29369	30597	27231	40459
3207	0	29935	32784	34243	26289
3208	0	32533	43851	42535	30954
3209	0	26963	38563	35185	44723
3210	0	32342	42193	42269	30734
3211	0	39996	31277	26604	33595
3212	0	41919	27833	25271	34884
3213	0	36174	40941	25117	25876
3214	0	27306	41470	33811	33307
3215	0	35836	27708	35506	41676
3216	0	35908	36450	38365	28233
3217	0	38963	42007	39245	42747
3218	0	26446	42502	30487	27051
3219	0	37906	37966	37423	44760
3220	0	26150	43892	33802	34500
3221	0	25123	25734	31843	29359
3222	0	41626	43044	29607	35157
3223	0	40918	31149	43288	30623
3224	0	36723	40901	44290	28662
3225	0	33532	32200	44134	27810
3226	0	28519	35330	42073	34930
3227	0	27564	28876	33848	32416
3228	0	28249	33124	35085	25333
3229	0	33050	27010	30060	37557
3230	0	27035	32293	31818	36305
3231	0	42942	43084	26741	34713
3232	0	41194	43184	40211	39804
3233	0	40054	35975	43644	38067
3234	0	34591	28885	27698	43850
3235	0	26084	40875	42384	36232
3236	0	26859	37070	34584	35962
3237	0	26256	34072	38435	40111
3238	0	38201	34143	29478	30640
3239	0	40420	41466	26921	36098
3240	0	34998	28657	32508	32002
3241	0	39043	28545	25689	34763
3242	0	31377	25496	31739	38819
3243	0	41786	30417	27764	29963
3244	0	29547	39703	40857	43013
3245	0	26611	40800	38471	42971
3246	0	43015	25818	40869	36396
3247	0	34551	44879	33491	30815
3248	0	37277	35118	41282	34285
3249	0	30158	38658	42771	44400
3250	0	40177	41864	27611	25612
3251	0	35739	43600	30417	39208
3252	0	25464	42683	27824	37347
3253	0	37718	29302	35256	33313
3254	0	31384	31945	44264	32500
3255	0	41641	44968	42733	40861
3256	0	31781	40174	41719	27574
3257	0	26595	32878	37500	25853
3258	0	37241	36811	43623	37395
3259	0	37297	26279	43709	39165
3260	0	30001	27853	42550	42751
3261	0	32862	38235	25289	28253
3262	0	37795	27838	33906	33194
3263	0	31297	37306	27128	44780
3264	0	29783	36518	43861	28105
3265	0	37890	43289	29656	42688
3266	0	39831	31428	43413	39457
3267	0	29071	30000	38810	43091
3268	0	44110	33102	39651	41299
3269	0	41538	40043	37955	26110
3270	0	36984	28259	28696	40939
3271	0	25318	44608	25100	33874
3272	0	29988	44145	43381	28187
3273	0	30404	28618	41085	44867
3274	0	31067	40234	35611	36103
3275	0	38470	39456	41532	41213
3276	0	39109	42623	28098	44151
3277	0	30742	30100	40947	26369
3278	0	37328	38881	29558	43161
3279	0	37509	41236	44506	44223
3280	0	44561	33797	33310	29038
3281	0	39869	29389	26342	34748
3282	0	32378	26167	33421	26381
3283	0	43718	35142	26907	33576
3284	0	25677	32160	35185	39283
3285	0	26686	37956	31531	32623
3286	0	28890	42388	29472	35787
3287	0	25508	29158	29241	41703
3288	0	31476	34394	32234	35709
3289	0	35971	36091	35180	28719
3290	0	40894	43365	27334	39472
3291	0	26826	42579	26390	42517
3292	0	26903	32371	35507	25222
3293	0	40372	41532	25111	44948
3294	0	44458	34857	34353	32917
3295	0	42262	36146	25641	32346
3296	0	27973	27264	34192	26674
3297	0	32820	35997	29278	25591
3298	0	35572	32674	28605	36364
3299	0	31517	25736	43770	41943
3300	0	37658	43088	29590	44847
3301	0	31989	37209	29373	32512
3302	0	41150	40991	25026	38723
3303	0	42090	37207	38505	26959
3304	0	43039	38466	35208	33655
3305	0	36897	42019	35027	33963
3306	0	32489	40466	40107	30608
3307	0	32667	37972	26320	29233
3308	0	39428	36606	43323	39810
3309	0	26735	43932	29274	34007
3310	0	30578	32465	31501	43568
3311	0	33942	31228	35286	35409
3312	0	34022	35939	36405	44773
3313	0	26074	44039	31380	34822
3314	0	32643	25501	33093	44155
3315	0	43306	34208	42910	44999
3316	0	26816	28404	44231	38218
3317	0	26185	29772	31536	30269
3318	0	29647	26347	33652	42959
3319	0	32465	39219	42941	37320
3320	0	28988	44275	33032	31972
3321	0	34863	39859	36646	43185
3322	0	27461	25098	28366	34596
3323	0	35720	40335	40672	36578
3324	0	38413	43515	26647	40260
3325	0	25068	40913	35181	41849
3326	0	36545	30966	30836	34846
3327	0	43786	26168	29069	33556
3328	0	40290	30876	28347	31325
3329	0	38828	36188	44465	36132
3330	0	31882	34515	36473	31154
3331	0	42076	35384	32295	43705
3332	0	39493	34068	41484	44832
3333	0	38854	36877	26594	25853
3334	0	27287	33079	30329	39019
3335	0	39006	33313	32196	31398
3336	0	38551	44265	30526	33315
3337	0	37827	35601	25704	31839
3338	0	41408	42294	40428	38258
3339	0	38191	40085	44726	32725
3340	0	27833	42432	39923	30592
3341	0	33630	38937	32548	38154
3342	0	41544	34926	32001	28162
3343	0	41377	26748	37898	29626
3344	0	37045	28585	34006	34102
3345	0	42275	44980	43526	32781
3346	0	34322	29053	43154	33282
3347	0	40800	43329	25522	36372
3348	0	36745	25396	34528	29662
3349	0	39268	39293	41085	26836
3350	0	44823	26388	43426	30032
3351	0	32453	35339	43411	41395
3352	0	27481	41819	34230	37062
3353	0	39809	41143	41689	38549
3354	0	38995	33490	40681	25965
3355	0	32562	35341	31162	39930
3356	0	44425	34150	41399	33091
3357	0	35891	31494	30972	28223
3358	0	25561	28308	38217	43196
3359	0	38909	42181	26105	32383
3360	0	37669	37420	38876	39357
3361	0	31177	39393	38049	34000
3362	0	31936	36844	41652	30929
3363	0	40248	39147	39855	33847
3364	0	26199	39073	32511	36611
3365	0	40123	31169	37905	38447
3366	0	35274	25264	44216	39351
3367	0	32978	36186	31466	39700
3368	0	41495	42489	32059	26965
3369	0	35536	38456	30113	37606
3370	0	31719	44294	27648	37799
3371	0	29321	28936	36465	27955
3372	0	29760	42781	43834	29037
3373	0	35457	27757	35889	42552
3374	0	38889	37114	36609	34267
3375	0	39369	43052	38890	31375
3376	0	39005	29918	32920	28472
3377	0	25067	42082	44811	27636
3378	0	25699	40317	28613	25353
3379	0	25684	41951	44846	30943
3380	0	26233	41132	28448	25448
3381	0	34346	44284	35501	42777
3382	0	26507	37279	35906	30353
3383	0	42020	28018	32647	41061
3384	0	25127	35366	42513	27424
3385	0	27566	37318	25255	44928
3386	0	44226	38167	35551	44683
3387	0	27903	30911	25184	39483
3388	0	30786	31638	32712	34206
3389	0	32427	28920	30853	38452
3390	0	42107	32581	38704	36940
3391	0	39956	33980	29715	36689
3392	0	25510	33615	42684	27240
3393	0	29617	36590	27104	32441
3394	0	42454	33848	25287	32341
3395	0	43123	37045	36379	32657
3396	0	28600	44340	31912	29045
3397	0	39605	39372	35879	44997
3398	0	44507	31700	38395	42355
3399	0	29429	38799	34065	35006
3400	0	44233	34094	26347	34293
3401	0	26160	32098	42803	31408
3402	0	29901	28950	26840	26375
3403	0	41159	44977	28983	26385
3404	0	40767	39238	43188	28448
3405	0	30822	35876	41920	44493
3406	0	35455	34996	26978	35517
3407	0	27817	31876	25425	33083
3408	0	29496	42813	40633	44877
3409	0	39002	33628	39086	37370
3410	0	27283	36149	36551	37572
3411	0	41897	27677	33169	32980
3412	0	37287	29883	25284	42417
3413	0	32401	25026	35843	29495
3414	0	27845	38874	32258	25815
3415	0	31874	28557	27431	43705
3416	0	33438	41028	26402	39165
3417	0	44237	36292	35676	37964
3418	0	33388	41320	35963	27080
3419	0	44878	42903	37893	28801
3420	0	32579	35970	29308	37639
3421	0	44876	39351	39540	41554
3422	0	40351	43876	36279	35372
3423	0	39989	39890	35115	39099
3424	0	38127	42048	25725	37825
3425	0	28123	38333	34842	41670
3426	0	26772	25354	42892	32277
3427	0	31352	33150	43371	40557
3428	0	36601	35042	26249	27497
3429	0	39166	30447	31453	31267
3430	0	44379	43043	40652	44630
3431	0	42907	34965	40665	29072
3432	0	44074	41852	40160	26431
3433	0	32595	35305	32585	36917
3434	0	26326	28778	31007	40866
3435	0	26020	44201	27372	40619
3436	0	37632	30191	41299	32536
3437	0	28976	36143	36559	30514
3438	0	43312	44979	35291	32523
3439	0	44432	29955	31818	28281
3440	0	44538	35998	36395	32353
3441	0	25128	25862	44313	26006
3442	0	28444	32450	31407	42328
3443	0	42915	25304	25484	37788
3444	0	36321	31041	39701	27493
3445	0	28573	35410	34612	32326
3446	0	35938	33970	29738	39202
3447	0	38838	44723	36103	28726
3448	0	44438	27619	26753	25878
3449	0	35015	44668	29224	39290
3450	0	44191	36845	26343	43967
3451	0	44055	29461	25981	32582
3452	0	30338	28351	32820	29974
3453	0	42875	31227	38433	36455
3454	0	27412	37986	25224	41649
3455	0	33716	27283	38244	38088
3456	0	44923	40790	40068	38323
3457	0	39190	30495	43084	27488
3458	0	28374	39554	43585	44428
3459	0	25591	38297	25914	25768
3460	0	39591	40213	36600	40190
3461	0	34878	28442	27099	26732
3462	0	31998	30093	25239	34843
3463	0	41511	32045	26779	37071
3464	0	28506	44167	38698	31651
3465	0	44272	44999	29568	33038
3466	0	30747	43064	29782	42330
3467	0	31318	31220	37647	40885
3468	0	38969	36970	40764	27454
3469	0	34873	25631	44516	25885
3470	0	39089	27984	31477	38174
3471	0	38644	39001	33898	39831
3472	0	41679	38168	25109	30305
3473	0	36879	26854	32557	39243
3474	0	31876	27471	36796	42440
3475	0	26151	41105	37584	30097
3476	0	36540	38813	38583	28748
3477	0	40019	41811	32445	40518
3478	0	32274	41091	36761	42273
3479	0	44957	44721	25086	33001
3480	0	40535	32577	28616	25312
3481	0	35385	26727	40888	26609
3482	0	39836	29770	38299	25379
3483	0	27532	35675	29181	31417
3484	0	29173	35398	30140	27235
3485	0	43410	37395	29701	38313
3486	0	31081	36613	31374	44503
3487	0	29913	32112	38144	36085
3488	0	44802	44451	40544	44226
3489	0	28335	43920	42885	42495
3490	0	41594	41186	31470	43939
3491	0	37200	30820	42405	41617
3492	0	37624	34517	33696	36175
3493	0	34522	30576	32698	26865
3494	0	29493	35654	27027	31940
3495	0	36691	44327	26919	25793
3496	0	34158	40280	33964	25569
3497	0	43463	31905	35618	26127
3498	0	34406	28323	32186	32226
3499	0	37968	32910	27568	35708
3500	0	37861	30391	27319	31064
3501	0	43888	35632	41342	27818
3502	0	38184	25684	31802	25160
3503	0	37647	33682	41746	41235
3504	0	29833	26042	34366	41068
3505	0	42590	40631	38786	26548
3506	0	43591	31776	28939	36216
3507	0	36209	41255	42587	30620
3508	0	39582	33857	33162	31620
3509	0	31869	25097	39532	37896
3510	0	32688	25670	40836	34096
3511	0	26133	30220	29286	43648
3512	0	38628	26961	39154	39141
3513	0	38749	39079	41418	31336
3514	0	34718	35502	29793	44300
3515	0	43774	32235	40399	29808
3516	0	42939	43731	40162	36175
3517	0	36438	30412	35894	37638
3518	0	33712	36592	40944	37435
3519	0	40999	44500	30397	37542
3520	0	26546	28068	42023	41808
3521	0	37620	38621	33642	40957
3522	0	37249	29184	44227	41986
3523	0	37875	25940	33383	37081
3524	0	41659	25873	33313	44761
3525	0	28606	43347	42559	34000
3526	0	41991	38614	35555	39127
3527	0	31954	25985	27214	37577
3528	0	25531	27405	43896	42890
3529	0	43776	29847	25487	31991
3530	0	35961	38291	40651	31523
3531	0	33089	42384	34731	39181
3532	0	27885	42531	31263	39617
3533	0	41495	32731	25234	26410
3534	0	42005	27504	42769	32790
3535	0	40198	36645	32840	26214
3536	0	40708	39895	43504	27198
3537	0	42917	26641	25043	44387
3538	0	25825	31380	30772	27191
3539	0	40939	25491	32797	43158
3540	0	30694	25626	30822	26820
3541	0	33533	28380	32614	42645
3542	0	30241	37534	41096	27850
3543	0	27458	33591	33364	27853
3544	0	38610	34052	33182	27067
3545	0	44550	38003	32288	40145
3546	0	36859	25018	25949	43918
3547	0	31273	43293	42392	41227
3548	0	33335	27987	39172	43188
3549	0	31502	25194	40198	30837
3550	0	34391	33185	32753	26785
3551	0	25775	28483	38198	29752
3552	0	26438	40120	26302	30549
3553	0	43125	40308	42942	44647
3554	0	34149	41199	44579	27815
3555	0	42710	40922	33508	34632
3556	0	42899	41002	33427	37326
3557	0	31545	31817	28774	30861
3558	0	25522	38579	32672	39759
3559	0	32490	39703	36783	39426
3560	0	41553	34183	32329	40772
3561	0	41775	39077	36959	33560
3562	0	30131	34096	33278	41053
3563	0	36940	36247	42279	38842
3564	0	36618	31697	39737	30190
3565	0	29677	44929	42216	34942
3566	0	31702	36844	32930	44203
3567	0	39367	31991	41299	31880
3568	0	32294	44999	28847	37773
3569	0	31586	31208	33459	37701
3570	0	27289	29951	28072	38482
3571	0	31485	37966	36782	39995
3572	0	25528	36986	42180	41057
3573	0	43370	34827	28330	28666
3574	0	44401	25432	39088	32558
3575	0	31706	41209	43169	34864
3576	0	32984	42443	37546	43133
3577	0	35427	39971	42580	27412
3578	0	44621	31185	25973	38523
3579	0	40447	25691	38105	38722
3580	0	28565	35169	41915	35790
3581	0	39122	27914	38914	38592
3582	0	38279	26885	36333	38762
3583	0	42804	41307	36112	26926
3584	0	30460	32051	30767	40784
3585	0	27314	26840	32118	44224
3586	0	35960	25243	30060	42531
3587	0	34271	40791	37184	32678
3588	0	43499	32220	44699	25553
3589	0	26441	30228	40338	40968
3590	0	42982	29284	37340	26278
3591	0	39543	38052	43371	40026
3592	0	34370	32270	43228	35507
3593	0	42105	27614	29000	30542
3594	0	29399	44206	33492	36723
3595	0	28756	28070	32722	31645
3596	0	44185	30638	28234	33240
3597	0	41324	41233	35730	36463
3598	0	35241	26837	42464	35883
3599	0	32172	29172	42749	33227
3600	0	29172	39421	25130	42489
3601	0	28422	38129	26746	29543
3602	0	27496	43893	38263	31248
3603	0	44229	32588	26730	31758
3604	0	29409	30933	35695	33715
3605	0	38119	34041	34161	42049
3606	0	35257	38335	29036	27027
3607	0	35220	43159	36416	30601
3608	0	37315	32639	27395	37938
3609	0	27925	31128	38795	37251
3610	0	37679	27767	28422	29282
3611	0	40921	30899	31534	43335
3612	0	32848	30019	27519	37322
3613	0	25582	33304	36113	42794
3614	0	26638	27517	26476	38815
3615	0	41273	40565	39070	28681
3616	0	34948	28377	40460	36048
3617	0	30542	26192	44989	43397
3618	0	35944	27780	26881	41086
3619	0	38312	33974	30714	28397
3620	0	35400	41864	28317	44655
3621	0	35350	34959	32065	33863
3622	0	33895	42236	33047	41863
3623	0	43219	43186	25285	38832
3624	0	40164	36160	38787	29363
3625	0	41853	32653	32142	30051
3626	0	39930	33556	36640	33526
3627	0	30785	38060	26809	42692
3628	0	40804	31707	31341	44761
3629	0	34045	35687	32380	30001
3630	0	33402	37857	31583	33752
3631	0	40492	38599	44847	30239
3632	0	44707	44183	38209	33344
3633	0	39375	28373	35062	31403
3634	0	25854	35347	28991	28933
3635	0	38408	32693	34633	44999
3636	0	34860	32602	39434	42059
3637	0	32410	34749	36249	27755
3638	0	27350	37562	43455	34369
3639	0	44060	30322	33250	39549
3640	0	34585	25548	37715	37088
3641	0	28100	34155	42798	44662
3642	0	35577	30218	27200	38426
3643	0	34128	31416	41465	39902
3644	0	34514	35026	40956	38939
3645	0	43234	36820	31034	30707
3646	0	38470	33763	42884	42764
3647	0	44266	27467	40387	39423
3648	0	39011	35683	32562	36808
3649	0	27262	30803	31021	27591
3650	0	40631	25716	34168	40862
3651	0	26774	26809	25260	39804
3652	0	27410	40558	30553	42585
3653	0	39302	34726	41636	34474
3654	0	41890	39663	27133	28598
3655	0	44703	37380	44749	33807
3656	0	28112	44673	38419	28491
3657	0	42364	25034	36225	26864
3658	0	27396	37981	43946	40311
3659	0	26029	40104	42188	32466
3660	0	27808	27489	40899	34066
3661	0	38961	40451	26219	43850
3662	0	25264	37540	27004	44189
3663	0	34841	44163	35737	31935
3664	0	32377	36519	44051	40085
3665	0	35670	38913	35867	37545
3666	0	37231	27821	39021	37342
3667	0	43345	43406	36651	29927
3668	0	27688	36634	42787	28843
3669	0	34439	30475	32855	36465
3670	0	39103	36332	42960	33081
3671	0	30471	32281	40457	43768
3672	0	36755	34822	25061	43028
3673	0	31385	29871	29947	28047
3674	0	40242	43004	42716	37497
3675	0	37543	34752	32904	25837
3676	0	25613	38658	35320	43025
3677	0	28126	32632	26120	36308
3678	0	41715	29120	40219	36494
3679	0	41996	30797	28365	26778
3680	0	41417	31670	30534	40502
3681	0	36633	41930	28581	30340
3682	0	39874	25317	29634	27486
3683	0	30448	25426	26292	42975
3684	0	30989	35212	25988	28388
3685	0	30262	29040	38987	36510
3686	0	36697	29060	40091	26726
3687	0	37266	44450	25934	39968
3688	0	43774	27399	34159	25606
3689	0	44433	30341	42049	32640
3690	0	27460	39102	38593	42818
3691	0	42216	35839	40493	33987
3692	0	28914	26521	26043	41993
3693	0	34905	42250	32428	44372
3694	0	31401	27116	44556	26670
3695	0	43971	28906	40071	39477
3696	0	39969	27008	27486	40948
3697	0	39602	28144	29408	28287
3698	0	33988	36840	28466	44347
3699	0	38207	26026	25153	36179
3700	0	26553	31406	32448	41392
3701	0	32188	38461	26950	32938
3702	0	34128	25459	32895	25706
3703	0	39971	38550	27362	37769
3704	0	36625	26765	26550	38058
3705	0	25335	36392	25798	28769
3706	0	36506	29325	35199	39014
3707	0	35249	35715	25769	39204
3708	0	25742	40133	26381	33899
3709	0	41990	30182	30408	25351
3710	0	41460	35337	38147	39787
3711	0	30203	40555	34340	27961
3712	0	28973	31154	27995	31766
3713	0	30609	34244	32086	25256
3714	0	40262	38375	37071	27118
3715	0	33344	44681	43102	39079
3716	0	33072	32430	33210	29860
3717	0	41752	35097	29682	41362
3718	0	37054	35903	35048	30810
3719	0	40420	33794	38079	42424
3720	0	41152	39285	43427	38166
3721	0	44862	39355	32552	27710
3722	0	26825	35921	41425	43533
3723	0	31448	44034	32237	44388
3724	0	37020	33747	32485	37201
3725	0	42893	44206	35300	26518
3726	0	38823	43334	30188	42994
3727	0	41733	25811	25364	41285
3728	0	30669	39849	38004	25814
3729	0	42334	39671	37961	42212
3730	0	28774	33524	30176	42369
3731	0	35694	34999	37091	27205
3732	0	38994	35149	34187	33894
3733	0	44697	27388	27139	33592
3734	0	31095	44552	25756	29338
3735	0	27957	35163	32804	38336
3736	0	41556	38129	37726	31657
3737	0	38908	32057	43550	39418
3738	0	25202	34340	26966	38403
3739	0	33058	29391	40371	37414
3740	0	35324	39797	44854	38503
3741	0	30780	41997	29049	35142
3742	0	28865	25387	30635	35479
3743	0	37082	27744	25377	25337
3744	0	30093	38573	40962	43700
3745	0	39017	41112	25053	36761
3746	0	35267	30532	27497	43411
3747	0	26895	26729	26346	41697
3748	0	40538	42471	26111	32719
3749	0	29724	29250	25284	32866
3750	0	29657	31038	37754	32696
3751	0	40772	39946	31016	39484
