# OpenSignals Text File Format. Version 1					
"# {""00:07:80:65:E0:2A"": {""position"": 0, ""device"": ""biosignalsplux"", ""device name"": ""00:07:80:65:E0:2A"", ""device connection"": ""BTH00:07:80:65:E0:2A"", ""sampling rate"": 1000, ""resolution"": [16, 16, 16, 16], ""firmware version"": 775, ""comments"": """", ""keywords"": """", ""mode"": 2, ""sync interval"": 2, ""date"": ""2022-2-10"", ""time"": ""17:19:13.655"", ""channels"": [1, 2, 3, 4], ""sensor"": [""EMG"", ""EMG"", ""EDA"", ""ECG""], ""label"": [""CH1"", ""CH2"", ""CH3"", ""CH4""], ""column"": [""nSeq"", ""DI"", ""CH1"", ""CH2"", ""CH3"", ""CH4""], ""special"": [{""SpO2"": [80, 40, 5, 4, 3, 3]}, {""SpO2"": [80, 40, 5, 4, 3, 3]}, {""SpO2"": [80, 40, 5, 4, 3, 3]}, {""SpO2"": [80, 40, 5, 4, 3, 3]}, {""SpO2"": [80, 40, 5, 4, 3, 3]}, {""SpO2"": [80, 40, 5, 4, 3, 3]}, {""SpO2"": [80, 40, 5, 4, 3, 3]}, {""SpO2"": [80, 40, 5, 4, 3, 3]}], ""digital IO"": [0, 1], ""sleeve color"": [""dark_blue"", ""red"", ""yellow"", ""red""], ""convertedValues"": 0}}"					
# EndOfHeader					
1	1	32344	26427	30276	42037
2	1	26025	32582	40225	44660
3	1	39526	41461	43004	35287
4	1	34946	36366	34933	38689
5	1	28068	35597	26072	25834
6	1	26636	29905	38598	25767
7	1	39414	27610	38142	36281
8	1	36484	41878	29155	27912
9	1	30588	31131	33625	42088
10	1	31549	33013	36739	39897
11	1	43212	33020	27345	43103
12	0	34205	43956	31043	35733
13	0	35910	29905	25656	27750
14	0	30563	35789	42681	27938
15	0	44207	39416	41054	30897
16	0	42097	36003	35914	26255
17	0	35849	34098	30330	26861
18	0	41012	43063	28462	35543
19	0	27802	28237	32740	32909
20	0	41824	44154	33444	30512
21	0	39800	32203	33807	26179
22	0	25940	29383	34004	36665
23	0	39828	25516	31576	44311
24	0	35777	27733	33573	33180
25	0	25333	35690	25667	25713
26	0	25701	36952	26089	25254
27	0	39869	26013	28626	34111
28	0	41883	44040	31691	37408
29	0	26936	39635	25230	29664
30	0	40037	32311	25253	41308
31	0	32373	41612	35109	27598
32	0	27813	37116	41859	36974
33	0	33229	31566	34380	42206
34	0	39973	34960	39361	42593
35	0	39676	32918	42575	31813
36	0	33471	39365	29448	39905
37	0	34403	44416	31306	31237
38	0	26429	28610	31187	44154
39	0	29628	25486	40645	34189
40	0	30124	37764	36984	35649
41	0	37554	28335	28929	32328
42	0	37198	33052	27269	43073
43	0	26185	35355	33837	33867
44	0	32383	41961	34594	36550
45	0	25868	41945	37145	33747
46	0	41218	25056	39090	33291
47	0	35245	39064	44266	41526
48	0	42052	25355	43227	31996
49	0	34997	43215	39078	29634
50	0	36897	36851	37736	41463
51	0	37229	35333	30145	37697
52	0	31794	36008	42279	30901
53	0	44559	39100	44116	42978
54	0	30781	37098	32571	30917
55	0	27116	43657	44714	31752
56	0	40280	32615	39260	30662
57	0	31754	25746	42911	28059
58	0	35406	36892	30050	34803
59	0	38652	44034	40589	35979
60	0	41083	37711	32072	27313
61	0	43434	44832	43574	42005
62	0	31020	40907	38148	38915
63	0	34394	34849	36897	28153
64	0	42550	30786	31069	25491
65	0	38085	32113	35534	35385
66	0	41277	35978	39154	27304
67	0	28367	25618	43831	37771
68	0	38733	38754	29699	42123
69	0	40563	36163	32505	26573
70	0	30086	43571	35089	35019
71	0	38726	39911	38719	28563
72	0	35514	35282	43317	35802
73	0	32831	35672	38199	31220
74	0	26367	28217	44293	26069
75	0	42826	29878	36550	34423
76	0	28099	25605	41514	27471
77	0	32151	35603	42756	25673
78	0	40761	26246	34870	25556
79	0	34013	40279	37563	40869
80	0	39835	44867	43277	38182
81	0	37054	28376	32132	44682
82	0	30783	35346	38314	40326
83	0	28107	26647	40013	43078
84	0	42757	36204	33281	26878
85	0	40880	36322	38103	40953
86	0	38983	25945	40021	30076
87	0	41252	41234	42355	35935
88	0	27868	42151	32469	40380
89	0	32488	43355	32852	38139
90	0	27855	32155	36113	42602
91	0	43961	35059	39234	42809
92	0	43814	31894	30000	29441
93	0	34245	32462	38392	29307
94	0	34423	26339	39087	25758
95	0	38033	39793	40227	35707
96	0	37371	27523	44031	35051
97	0	43184	25612	35048	32722
98	0	41738	26750	42598	27259
99	0	31533	27594	44353	42070
100	0	40755	44429	26366	38143
101	0	38191	29561	32577	39395
102	0	29556	41125	29183	25910
103	0	25047	40750	41984	44678
104	0	36190	25163	38090	42054
105	0	42819	39079	30031	42342
106	0	40614	29480	41156	38147
107	0	38693	30625	44291	34583
108	0	34923	31774	27432	27550
109	0	25294	30187	37634	30585
110	0	29011	44073	36887	41829
111	0	26806	26956	38964	40205
112	0	27326	40653	33337	28203
113	0	34613	26882	33879	38199
114	0	44850	42061	33513	33776
115	0	42222	42145	33659	30427
116	0	39910	39396	34173	25525
117	0	27653	29054	28719	34425
118	0	30726	40697	32034	43067
119	0	37380	26078	43481	43701
120	0	36479	44203	27088	35509
121	0	44088	25265	34382	30317
122	0	32344	27613	25654	40902
123	0	25283	31060	32573	30787
124	0	43197	43391	33125	42599
125	0	39599	43115	38499	34790
126	0	27827	30295	43483	35503
127	0	30292	31378	26861	33131
128	0	33615	44839	25082	38369
129	0	25093	40213	27184	32676
130	0	29071	32785	40265	25049
131	0	26050	35772	42309	44809
132	0	37185	39534	36430	25416
133	0	30148	31943	41154	40853
134	0	33834	28117	30871	40447
135	0	33582	38808	39801	30120
136	0	40179	32583	43324	29771
137	0	27373	33371	36064	39050
138	0	37138	38543	32859	26019
139	0	40779	27045	26578	42295
140	0	42213	40171	42687	31131
141	0	44681	44083	43054	43363
142	0	26650	40231	30570	26497
143	0	29791	40273	44270	28433
144	0	34910	44803	41245	43834
145	0	30228	28185	41153	25956
146	0	32424	31983	34149	37016
147	0	30460	27393	40687	35923
148	0	26524	31174	43131	25064
149	0	31352	44090	28806	28289
150	0	31859	36936	37311	38167
151	0	33804	36508	42368	28383
152	0	40327	35180	25229	33886
153	0	42404	30631	31928	33185
154	0	35437	38527	31477	43110
155	0	25623	27890	41850	44176
156	0	43300	37365	26536	37444
157	0	31874	37673	40244	39507
158	0	33109	34619	44309	26588
159	0	26238	26603	42508	34003
160	0	42337	28083	41002	38248
161	0	27227	30581	30893	32160
162	0	35379	36160	36487	41764
163	0	26936	35856	28138	41458
164	0	44217	35728	38313	29621
165	0	29161	44189	43970	35472
166	0	44829	32866	38034	40410
167	0	35504	42118	41298	29934
168	0	27332	40119	34406	27798
169	0	39683	39036	32218	30865
170	0	30021	37742	44080	30198
171	0	39002	25287	31501	43381
172	0	38797	42972	36593	34365
173	0	35164	30322	42337	37490
174	0	25820	42568	39972	29953
175	0	36740	34980	29861	32110
176	0	40457	42290	28425	38411
177	0	38656	37985	32678	33499
178	0	25885	25812	40612	41603
179	0	28972	38973	40226	25733
180	0	43392	44527	36212	25543
181	0	36510	34030	43921	43946
182	0	28396	41975	30132	40168
183	0	35087	44398	44872	41942
184	0	37720	26058	44986	37469
185	0	34511	39303	30475	38327
186	0	25034	25971	43496	44422
187	0	44557	37754	33723	44875
188	0	44922	32436	29655	36642
189	0	35852	31941	32531	38842
190	0	28914	38949	44774	38140
191	0	38638	34241	25464	27467
192	0	25681	44708	39857	38199
193	0	42889	31778	33911	38258
194	0	44185	38057	39466	25182
195	0	43038	36202	34295	41634
196	0	27626	44885	37749	27935
197	0	44025	44151	25838	37371
198	0	29787	43713	36447	34919
199	0	42403	27566	35238	40045
200	0	43751	34720	35153	30486
201	0	37219	40601	40755	38793
202	0	34528	40417	34019	39696
203	0	38675	43038	27684	32693
204	0	29345	40704	25816	42751
205	0	27726	28857	29819	34412
206	0	44187	36345	33377	44407
207	0	29321	31800	33703	30372
208	0	35380	35416	34857	34498
209	0	37326	40459	30581	40292
210	0	40428	32643	35371	44971
211	0	27103	32522	38537	31715
212	0	31894	29400	40873	30163
213	0	27121	26659	29089	38672
214	0	26326	33887	40651	34776
215	0	34666	42813	33816	36481
216	0	42207	28528	29698	39895
217	0	32090	34656	44535	27335
218	0	29079	42215	41137	43884
219	0	28125	30911	28603	31469
220	0	40407	38500	42000	33113
221	0	35112	38098	41982	31014
222	0	31390	32328	33498	38533
223	0	29547	28502	40804	35532
224	0	29394	31872	35407	31998
225	0	42598	29570	39877	29227
226	0	30100	39028	30961	29007
227	0	30053	34550	38367	41528
228	0	39795	43295	41628	33111
229	0	39144	26333	36696	34187
230	0	27216	36344	39861	33848
231	0	36093	42767	32617	30533
232	0	28369	27609	29176	29710
233	0	29642	39195	41249	36811
234	0	43212	35430	35063	33636
235	0	34275	39020	44041	37218
236	0	37193	26749	33548	44374
237	0	30453	42282	26867	31418
238	0	38729	34644	31499	44251
239	0	32324	30847	43656	38829
240	0	25222	43019	32960	36735
241	0	29720	27175	32074	37241
242	0	28667	33624	36836	39871
243	0	36814	27551	27449	30943
244	0	25519	30742	43282	32392
245	0	40961	32543	32424	44816
246	0	25041	39330	33195	43774
247	0	44655	38681	26038	33521
248	0	41438	42003	27704	38168
249	0	42449	44859	38307	32593
250	0	29511	28746	44173	36561
251	0	32220	33570	44780	42195
252	0	40886	33439	40767	26113
253	0	41792	37701	38858	31781
254	0	27232	30905	39505	31883
255	0	25682	28604	30054	43213
256	0	41034	28306	39055	33551
257	0	42165	29765	28991	29978
258	0	28786	33324	44547	26377
259	0	27297	41844	41005	25013
260	0	30999	25284	40100	36487
261	0	30941	38538	39688	40762
262	0	27880	39293	39367	29136
263	0	31553	30281	25800	38605
264	0	36583	38050	37808	40715
265	0	41088	42397	44908	37368
266	0	44579	41966	41442	36004
267	0	41143	39858	32701	30030
268	0	33490	36213	31800	31003
269	0	40514	44369	44610	43863
270	0	31529	30328	29587	35237
271	0	42216	25930	27524	40702
272	0	41501	33562	37024	36145
273	0	27141	26334	41447	27925
274	0	33967	28392	31798	28160
275	0	28927	32202	43959	27859
276	0	34526	34182	35114	37703
277	0	30394	35687	34460	42625
278	0	40538	33229	34622	26308
279	0	43307	31651	43889	29743
280	0	30526	30007	35223	34157
281	0	31232	36872	40107	26719
282	0	29443	33168	40601	26965
283	0	43253	26825	43425	26700
284	0	28135	38130	35051	39889
285	0	26179	26529	42530	28493
286	0	38070	37837	35772	29810
287	0	33110	30593	40495	43931
288	0	28510	37324	36576	42345
289	0	43072	40221	27994	42855
290	0	32409	28036	35153	37327
291	0	31265	36579	36160	31923
292	0	33621	39896	36977	27045
293	0	44789	30004	35212	27963
294	0	31304	28733	36220	42826
295	0	37896	30139	37080	26779
296	0	34633	30452	39093	32670
297	0	40082	44448	33901	37404
298	0	37953	34255	42507	35658
299	0	40576	32823	40967	43056
300	0	30618	43011	31054	42551
301	0	26653	44762	33979	36464
302	0	34833	33334	37914	27882
303	0	36713	27635	30391	27374
304	0	39894	26276	25101	44379
305	0	41528	26929	32699	26212
306	0	32455	26816	42867	27381
307	0	28387	35296	33412	34279
308	0	39831	30576	38360	39174
309	0	39296	43130	42882	27464
310	0	36554	29448	39026	30417
311	0	28358	25997	27476	28940
312	0	29473	38261	26154	40623
313	0	30995	41024	32365	42929
314	0	44970	33901	33564	42312
315	0	39890	28467	41746	34145
316	0	25425	43074	39578	25113
317	0	44970	35193	33609	28747
318	0	34400	38213	29523	26977
319	0	32561	31855	37304	33153
320	0	31436	33379	38232	34345
321	0	26200	33364	27180	39222
322	0	38166	29586	25124	35060
323	0	29233	25384	31728	31831
324	0	38104	43157	35458	40908
325	0	42522	37071	30525	35338
326	0	38267	36889	36427	40882
327	0	44795	43001	37466	34196
328	0	41442	37143	28982	29665
329	0	30287	27163	40563	25632
330	0	39636	33303	27469	32574
331	0	35568	42527	34813	28426
332	0	30781	26836	31057	37894
333	0	35124	32806	40908	40207
334	0	39848	32888	44141	28987
335	0	29861	31203	35807	34176
336	0	36556	27510	37388	35498
337	0	35871	41104	34232	27956
338	0	41357	33419	30230	25930
339	0	27820	44452	30177	44996
340	0	34139	28059	36294	27203
341	0	28232	43494	31870	26622
342	0	44342	41093	27788	30520
343	0	43145	37227	41933	36409
344	0	33719	32598	42262	38666
345	0	44444	38400	34603	40770
346	0	38073	44819	38157	32956
347	0	31938	38312	41348	42715
348	0	36079	25340	28293	29317
349	0	32125	27566	25291	38294
350	0	38720	26869	30099	43571
351	0	37011	25146	25899	31018
352	0	41321	43607	43319	38571
353	0	26826	27205	30763	31406
354	0	30301	43473	44084	27191
355	0	39547	35438	35713	39191
356	0	43876	41557	41623	29735
357	0	35205	43761	36424	27123
358	0	34908	38997	26428	27221
359	0	27568	25425	39798	38141
360	0	25176	31282	39595	39496
361	0	35978	32381	26640	39974
362	0	39300	34057	35921	33549
363	0	31093	40891	30025	40825
364	0	29152	25503	41255	30803
365	0	37928	32215	41498	27570
366	0	41083	38364	35803	41066
367	0	29770	34785	26366	30187
368	0	26468	29025	29214	25207
369	0	40905	31003	29409	26291
370	0	28392	38230	27486	29516
371	0	39295	43306	25509	29281
372	0	35557	29291	38254	32940
373	0	35348	34136	30212	42579
374	0	32879	32060	38722	32400
375	0	40430	40397	32361	35950
376	0	27286	33033	34547	44853
377	0	30617	38974	43301	32953
378	0	29444	35689	34490	35685
379	0	37017	25704	43894	41271
380	0	38697	35708	28537	40365
381	0	44015	26404	42072	31881
382	0	35695	26806	25087	28728
383	0	25027	34790	25384	29866
384	0	30687	26936	38460	27466
385	0	26925	28167	29540	33037
386	0	27295	39290	38181	30629
387	0	37946	30085	37426	26354
388	0	29829	39921	26222	32734
389	0	39160	26751	37302	28701
390	0	29697	31954	29565	37962
391	0	30016	35899	27086	37556
392	0	42650	28106	31751	33069
393	0	28215	35637	37561	36913
394	0	43000	27995	42249	37702
395	0	27369	43785	28963	41118
396	0	43641	44951	40086	42203
397	0	37325	35901	44398	37635
398	0	37266	34070	27223	28128
399	0	40791	29269	39004	43281
400	0	31912	37581	29242	38357
401	0	41956	25555	42282	36989
402	0	40947	27381	30392	26751
403	0	41737	25609	40291	44266
404	0	42806	36498	39868	32892
405	0	28293	29561	26469	32444
406	0	38707	32343	31622	34608
407	0	33395	30718	26432	41820
408	0	32809	43292	26713	35757
409	0	38180	41726	25214	32839
410	0	38864	29702	25540	44170
411	0	28465	26969	33776	43919
412	0	27607	38990	39304	42453
413	0	36949	43745	34231	27655
414	0	36865	36968	44221	36179
415	0	32039	41421	32693	28418
416	0	40876	36175	38278	42707
417	0	33132	39088	37090	25403
418	0	25052	41785	36945	36846
419	0	31489	36770	36637	36865
420	0	35190	29387	39234	37287
421	0	38670	31924	27367	28642
422	0	41249	40108	36628	35672
423	0	26581	25706	37973	38665
424	0	27914	43683	25565	40054
425	0	27177	42076	39183	42002
426	0	29110	36370	25755	26176
427	0	43341	32522	35136	41501
428	0	39877	40472	44351	29451
429	0	29534	33512	39770	30758
430	0	27996	32050	34632	33104
431	0	29260	42001	42925	34396
432	0	31097	40131	43207	41376
433	0	42341	41713	34705	41526
434	0	28001	40427	30600	43983
435	0	38764	32519	32055	32431
436	0	30522	38021	25076	39875
437	0	27212	37154	36138	31025
438	0	38583	43427	30658	41242
439	0	43244	28799	34579	25097
440	0	31735	36473	44999	42965
441	0	34884	42167	26108	35644
442	0	26928	38541	27588	37995
443	0	43817	35598	31229	43887
444	0	32772	43954	33716	36215
445	0	34149	33747	32832	30556
446	0	41830	28480	26076	41612
447	0	34252	25371	26332	31964
448	0	28335	43151	34893	34800
449	0	34619	38833	25256	33028
450	0	44715	39754	34548	27862
451	0	34485	40612	32369	30310
452	0	40807	30504	34271	32729
453	0	40184	29119	35963	36432
454	0	34736	29127	40003	27039
455	0	39058	42487	43483	37538
456	0	25283	27823	36035	39586
457	0	42636	42727	26168	28313
458	0	42036	44394	43310	38130
459	0	25976	43581	25690	44440
460	0	33604	37846	32625	26379
461	0	40588	32598	39778	31171
462	0	42758	36439	27927	43676
463	0	42839	43208	33972	39975
464	0	42220	40983	26678	42604
465	0	38163	36668	29141	29710
466	0	28673	36473	44060	26325
467	0	35757	32439	32600	33406
468	0	37142	36286	36161	31760
469	0	32350	35056	27612	25169
470	0	28328	33679	41816	38531
471	0	36374	29999	28866	25623
472	0	44632	36733	36360	28661
473	0	41116	28240	35780	36557
474	0	43513	33743	31134	35584
475	0	32767	28903	39175	29755
476	0	39421	41618	42844	41872
477	0	27911	43443	41228	34271
478	0	44856	31238	42191	27702
479	0	33540	34683	36041	32984
480	0	33391	39648	33127	36665
481	0	44748	35214	36001	25085
482	0	44306	39290	42202	40517
483	0	33583	28341	37352	38584
484	0	25762	44317	36410	25533
485	0	28767	29887	31066	41928
486	0	28262	34299	31268	27081
487	0	33803	36947	44060	35626
488	0	38775	26373	38221	35074
489	0	34092	34192	43378	29064
490	0	26441	35852	39591	36667
491	0	39081	29970	26727	37668
492	0	34195	42845	43279	34564
493	0	31170	41759	29573	31777
494	0	34716	36438	37709	33029
495	0	38663	36862	29862	28733
496	0	41625	34243	33166	37579
497	0	27036	37754	41563	38758
498	0	35018	43252	35872	28171
499	0	35557	32024	36780	43495
500	0	40478	28160	44030	41723
501	0	39917	32484	44730	34878
502	0	32512	28931	31330	33047
503	0	32410	26535	42803	36870
504	0	26024	27143	43009	40584
505	0	25084	29805	38886	31124
506	0	34959	26494	40234	27629
507	0	29284	25867	44296	35727
508	0	44295	37797	28389	31796
509	0	33925	34515	42001	39523
510	0	26044	25444	42682	36136
511	0	43981	35815	26819	44508
512	0	28802	36025	30750	30980
513	0	29000	38680	25413	43397
514	0	38215	27289	28595	40030
515	0	31781	26309	36862	44069
516	0	30231	25409	33169	42792
517	0	26910	27565	26621	28150
518	0	40339	41471	36402	40656
519	0	40402	28846	42813	39601
520	0	29263	41676	42082	43204
521	0	37573	31850	37969	25090
522	0	28426	33579	43798	38120
523	0	40445	28776	42653	35268
524	0	25008	42543	33414	34161
525	0	37430	41252	40085	42091
526	0	41280	33632	42995	36492
527	0	31058	30598	39711	38860
528	0	33174	41245	34563	39532
529	0	30819	44019	38139	30394
530	0	26252	36411	35372	25868
531	0	40702	32017	28305	29666
532	0	37819	34172	44883	29264
533	0	43161	43855	42809	30476
534	0	39323	27838	31205	25620
535	0	27356	43196	34519	40610
536	0	35065	32288	32153	39707
537	0	35887	39590	29553	38310
538	0	39476	25189	40117	32491
539	0	28172	42591	25387	40658
540	0	42109	28762	35200	43887
541	0	29307	30913	32925	27762
542	0	31041	40393	44185	31238
543	0	36712	31033	39879	30495
544	0	32545	41761	29326	32956
545	0	38528	30478	42711	35729
546	0	27443	39170	41375	36422
547	0	25377	38151	32773	40544
548	0	26479	43482	35578	34231
549	0	33364	26491	33313	36431
550	0	42478	32092	29399	40299
551	0	39113	43195	31910	30315
552	0	35306	41710	42492	30461
553	0	35199	36025	32001	31258
554	0	43467	44631	41421	35653
555	0	29952	33823	26113	40855
556	0	30227	33055	29904	43464
557	0	44108	30715	26375	39882
558	0	25294	29110	31100	27913
559	0	39856	26673	31968	26725
560	0	26561	29816	44416	34495
561	0	35687	41167	32380	28597
562	0	30074	32510	35179	25462
563	0	31924	32650	31823	43422
564	0	38982	31746	39135	26551
565	0	28105	26457	33814	27876
566	0	28252	25769	44472	36635
567	0	38545	26441	35062	26951
568	0	41195	42010	26623	29919
569	0	31389	29046	40124	29229
570	0	30865	34951	36213	38670
571	0	36819	44334	37079	26912
572	0	44326	37532	39390	35146
573	0	38200	26740	36608	37113
574	0	37952	39971	42085	43060
575	0	33463	39634	33601	31542
576	0	32587	41253	42156	43007
577	0	25989	37801	26177	26058
578	0	29234	44425	31510	44862
579	0	31255	42502	25018	37906
580	0	31788	31561	33750	36577
581	0	44883	34876	35269	28959
582	0	41062	31379	31027	25923
583	0	43127	26005	30150	38987
584	0	31846	42890	25640	34921
585	0	31197	32858	37355	32230
586	0	29971	40638	28821	38530
587	0	39890	44396	41531	25444
588	0	33522	38120	30006	35137
589	0	32054	43946	29269	39695
590	0	33594	44999	25365	35322
591	0	38090	42224	28762	29903
592	0	34620	28806	30696	25845
593	0	44872	35900	39204	27056
594	0	36930	43418	29599	35119
595	0	37286	25380	37503	26737
596	0	37712	34238	42435	33074
597	0	33535	35397	29412	35661
598	0	40691	44451	27297	40047
599	0	42949	27967	31139	28997
600	0	26625	39254	44532	35781
601	0	38006	39746	38652	29691
602	0	42276	32028	35890	27092
603	0	29635	44336	27570	40886
604	0	25275	31492	34526	28689
605	0	25172	42528	27862	39211
606	0	36710	37357	33147	31640
607	0	34103	30685	35777	25630
608	0	29701	41717	29308	44384
609	0	30267	28314	29147	37644
610	0	42889	28776	30485	36067
611	0	27256	38099	25422	41650
612	0	26035	29221	32142	27882
613	0	35967	33375	39773	41037
614	0	40755	38956	44569	44295
615	0	38453	41146	42201	26478
616	0	27523	37779	32981	29819
617	0	31447	26539	26257	36217
618	0	41285	29403	36749	40160
619	0	36211	27343	44848	29266
620	0	36527	25853	39053	29443
621	0	32522	33457	27789	44529
622	0	41129	28603	27614	31414
623	0	32390	27674	44655	38787
624	0	44023	35705	27095	33502
625	0	42192	34895	35295	35643
626	0	43445	33278	32148	30145
627	0	26950	43112	31144	25638
628	0	42403	30049	34874	39893
629	0	31863	43229	37928	43026
630	0	34757	31788	29045	35649
631	0	34892	35184	41354	40116
632	0	43469	35418	37720	33988
633	0	34852	41723	33702	37181
634	0	30018	30223	27289	27652
635	0	40059	25395	25753	25565
636	0	39094	32813	31376	41789
637	0	33956	31913	43533	33513
638	0	33689	42703	29212	44706
639	0	28776	27073	40153	30067
640	0	39154	28411	42232	38660
641	0	26531	41542	26274	38980
642	0	28805	35244	29114	33479
643	0	25490	40419	32322	25654
644	0	25837	40522	27863	39845
645	0	38681	40519	28022	41735
646	0	33932	40121	37995	41976
647	0	39835	33152	25156	30217
648	0	44108	42967	29206	42269
649	0	43651	44602	28847	25552
650	0	41804	33714	36679	31362
651	0	37622	27511	44944	29395
652	0	38700	29734	43059	28896
653	0	41001	39204	36466	27784
654	0	28947	33280	35852	38902
655	0	27501	39855	26737	28463
656	0	41624	33592	34594	30981
657	0	43621	41188	38091	44295
658	0	35986	33675	32386	28465
659	0	26406	30916	27481	43439
660	0	26699	36673	34009	42269
661	0	34954	34873	42071	41185
662	0	36034	38893	40096	43260
663	0	28623	38303	34823	44976
664	0	26931	41654	29839	37505
665	0	39333	25095	44168	32268
666	0	37426	25436	32574	40798
667	0	44199	32303	35061	41846
668	0	41085	26618	34628	29238
669	0	33115	38912	43046	39860
670	0	29007	32280	31299	36524
671	0	27178	34014	42890	37329
672	0	31400	39687	31546	30595
673	0	40729	26286	26350	34659
674	0	29688	41449	33183	33750
675	0	33180	37861	34781	44445
676	0	42683	37444	37438	42961
677	0	32885	36528	39784	25315
678	0	32239	25025	25469	26960
679	0	38157	40271	33979	40166
680	0	38513	28973	39268	27110
681	0	42066	36784	26813	37714
682	0	28744	26943	29086	28163
683	0	29612	34773	40682	42149
684	0	42616	26423	34614	43047
685	0	26483	33867	27841	32736
686	0	30944	37451	37928	34095
687	0	37923	32599	29492	43758
688	0	29046	30294	28873	41880
689	0	30645	29995	28926	28951
690	0	29970	26694	42539	33931
691	0	31196	28800	40346	30813
692	0	38568	34219	44030	41759
693	0	39447	26252	30213	41902
694	0	36190	35395	34411	27402
695	0	38084	27263	26000	28013
696	0	35944	36987	31335	35469
697	0	28523	36076	37604	34829
698	0	39892	30583	32579	43185
699	0	31273	26227	42150	35787
700	0	34595	42353	43919	36065
701	0	26842	39086	37365	34666
702	0	39161	38019	44420	38592
703	0	28249	40191	30166	42589
704	0	29093	31707	30536	32082
705	0	29770	32551	25386	44816
706	0	26111	27734	26059	30174
707	0	33269	31980	25708	37373
708	0	28005	44109	25201	38688
709	0	43585	26010	43146	32784
710	0	44714	43538	41950	33719
711	0	35620	43342	30348	30240
712	0	32537	26591	37396	32265
713	0	38189	37760	31217	37606
714	0	40105	28407	35595	43048
715	0	34389	41862	25208	34152
716	0	26034	29540	37783	39698
717	0	30940	27595	39257	41569
718	0	31434	30455	36204	33889
719	0	38558	34361	38136	32505
720	0	41589	25523	38488	35291
721	0	29262	39288	25643	39763
722	0	33529	36848	37332	44539
723	0	28502	43987	44577	29794
724	0	40507	37242	41463	33193
725	0	42341	41481	26360	33278
726	0	26599	25746	30183	31975
727	0	38103	29447	33125	41539
728	0	35885	35294	39396	33270
729	0	27230	39411	27940	40046
730	0	37063	43088	33366	26995
731	0	44551	30065	35773	25762
732	0	44857	36050	30815	26269
733	0	31025	28552	36203	27983
734	0	31749	39900	33356	39266
735	0	29448	42638	37094	37492
736	0	28050	35584	25818	44232
737	0	35694	44015	26229	35047
738	0	36292	40452	26141	33913
739	0	30259	36039	35418	37823
740	0	30597	30416	44012	34971
741	0	33427	41966	43976	37038
742	0	35756	43886	30034	38271
743	0	34721	34146	39553	32566
744	0	30444	26945	32187	26294
745	0	41184	39391	33139	41443
746	0	26263	31819	40657	40880
747	0	30645	34799	29697	26284
748	0	42712	41371	27316	35825
749	0	32886	28171	36308	31908
750	0	43571	37162	29351	28723
751	0	31134	41786	39374	25416
752	0	31758	44489	34531	36811
753	0	25007	44153	28676	25496
754	0	38252	32938	34508	35553
755	0	26124	25506	29711	44571
756	0	35619	33550	28790	37645
757	0	44791	25722	44479	40011
758	0	29405	30143	41320	36673
759	0	43162	25501	31259	41187
760	0	44847	26302	36340	35303
761	0	33240	27795	44406	38742
762	0	36136	44116	43513	42776
763	0	35477	39199	32998	43478
764	0	39708	40086	43510	25974
765	0	33477	31637	39833	26990
766	0	41008	30925	33548	29543
767	0	29653	41499	25263	42815
768	0	40312	37533	43260	25222
769	0	37393	34719	42186	31705
770	0	27245	38111	32613	31644
771	0	30203	30117	34806	37117
772	0	40688	26000	28038	44579
773	0	38989	26016	30820	34105
774	0	33528	33947	30948	43536
775	0	30974	27407	31521	26348
776	0	44850	36073	41790	39859
777	0	31573	44742	36255	42627
778	0	44590	31924	27730	32399
779	0	26260	41055	44829	30542
780	0	39315	37145	35593	43244
781	0	41938	38742	41146	41480
782	0	28715	40451	43953	37405
783	0	36757	36864	39305	36235
784	0	28617	32133	26429	38939
785	0	34932	40925	27696	43172
786	0	40533	32778	43388	32064
787	0	40507	29545	42012	38909
788	0	32525	32944	43473	26753
789	0	41457	37787	34009	40555
790	0	39719	35258	36440	38034
791	0	33014	25191	34165	26407
792	0	41578	40410	34865	35047
793	0	29865	33742	30703	32358
794	0	29693	30197	38753	42260
795	0	43333	25024	31030	44296
796	0	37576	44890	37273	39286
797	0	30588	44996	32269	32888
798	0	31962	43737	29217	44614
799	0	30241	31429	32526	38970
800	0	40585	31054	34329	28007
801	0	32262	35857	28156	32371
802	0	32840	39602	35973	43260
803	0	26227	44441	38735	36479
804	0	28014	25087	35078	44637
805	0	28149	35732	25237	35690
806	0	35262	41846	38791	30749
807	0	30474	39581	28406	28677
808	0	33322	41978	31347	37044
809	0	30299	43906	30238	44591
810	0	30268	32204	26477	31431
811	0	26063	40613	40689	35601
812	0	38363	32753	35304	33538
813	0	37696	30054	32776	37558
814	0	25386	30162	42066	43878
815	0	40706	30602	38568	29292
816	0	29841	28107	37763	33416
817	0	35372	37032	40886	41802
818	0	28567	29279	30855	26314
819	0	29689	31643	28692	40802
820	0	37309	28583	42009	35597
821	0	29919	32260	30610	35009
822	0	26568	30946	30550	28652
823	0	25004	28608	43128	27664
824	0	37300	33289	28796	25259
825	0	43728	43583	44823	27902
826	0	40075	37780	36697	44127
827	0	30928	42127	31763	42005
828	0	33506	42734	44206	35278
829	0	36126	30601	28944	43799
830	0	25848	34932	36386	37616
831	0	32855	34910	27273	31307
832	0	35863	37261	43642	33739
833	0	37649	32006	40258	42861
834	0	43948	44032	44744	25015
835	0	38533	44886	35080	28857
836	0	39195	44142	43495	38422
837	0	44354	25482	32103	29004
838	0	41549	43695	33714	29078
839	0	40591	40200	36665	36199
840	0	33382	28371	35355	37925
841	0	30366	41996	35021	44159
842	0	28167	35790	25377	37160
843	0	32802	35671	36187	41206
844	0	26303	31032	28658	44355
845	0	30809	26194	40599	44405
846	0	29583	40047	43461	36570
847	0	37635	43701	36246	37727
848	0	34994	29537	41511	34873
849	0	35005	26466	36540	31578
850	0	37070	43961	43159	44419
851	0	35739	28717	37508	40229
852	0	35107	27965	32746	44967
853	0	35832	38499	32195	27239
854	0	44911	29358	28107	34603
855	0	25840	32236	34554	38932
856	0	31007	34508	38885	27253
857	0	29690	44335	32831	35431
858	0	38289	33548	26079	35426
859	0	33437	41463	44521	34931
860	0	43119	38395	27399	44686
861	0	42799	29737	37093	39659
862	0	29039	32163	37913	43112
863	0	28411	31978	34395	29428
864	0	41289	42132	39185	29528
865	0	41819	26930	34279	34660
866	0	44311	34477	35534	34711
867	0	28545	44454	25273	41937
868	0	42327	42442	32974	39010
869	0	28341	32619	36250	44802
870	0	34284	32265	29809	36717
871	0	36042	43442	37702	35200
872	0	40036	37028	25468	42685
873	0	33535	27887	32945	38650
874	0	26615	43875	44057	37822
875	0	41671	30098	31836	33209
876	0	34507	33008	35469	27470
877	0	27249	43883	38537	37639
878	0	30395	33536	28816	36189
879	0	28158	44624	32822	27896
880	0	44598	42626	43787	38668
881	0	42012	34585	30973	39303
882	0	36930	42897	27819	33311
883	0	35874	41147	34773	36162
884	0	41514	30946	27582	37180
885	0	38427	34638	35644	34838
886	0	32763	38142	27289	34937
887	0	26284	30513	44020	39119
888	0	40895	38770	41544	27515
889	0	29387	32119	35639	29576
890	0	43281	42843	35412	37974
891	0	44218	26317	32652	32385
892	0	29727	39254	30930	35089
893	0	44849	26722	29174	38673
894	0	42436	25271	39969	39558
895	0	31272	44646	28598	29771
896	0	30089	26785	34478	42063
897	0	33802	41813	29965	43705
898	0	40779	31294	33849	33930
899	0	34845	40426	41459	29194
900	0	31876	28555	40409	37167
901	0	27998	33134	35411	39270
902	0	41032	39784	29720	40286
903	0	33942	29401	40413	26320
904	0	31247	32947	31477	26877
905	0	31644	35591	37863	34805
906	0	43422	32144	37683	26301
907	0	36399	31650	25733	25003
908	0	42279	44806	33889	27476
909	0	39982	34350	39225	39736
910	0	44756	35344	36345	42046
911	0	36344	37152	31176	38886
912	0	29552	32388	26732	38833
913	0	27436	28387	32821	43587
914	0	34435	26751	40139	38834
915	0	44477	43854	43861	28779
916	0	43674	29272	38227	28575
917	0	30014	26177	26932	33016
918	0	28769	42724	36847	30121
919	0	28250	27636	42994	42943
920	0	37067	37028	32849	34213
921	0	42398	42081	32995	29913
922	0	34928	28173	39321	35052
923	0	36609	30893	39357	29375
924	0	31755	44758	26390	35471
925	0	32418	26439	30242	36346
926	0	33469	27611	44680	38184
927	0	36976	35137	32141	26743
928	0	35272	42991	42907	28105
929	0	29281	43216	40653	31491
930	0	40063	26914	40021	43038
931	0	38311	39130	40667	42495
932	0	33227	30522	39120	27024
933	0	36105	43938	34586	36054
934	0	42543	39463	35078	35166
935	0	26780	43006	37831	39162
936	0	31786	27684	38726	44429
937	0	26651	30422	34379	43069
938	0	28939	33378	26960	40869
939	0	36391	26701	35007	43848
940	0	26989	36620	36499	31716
941	0	31597	29065	38071	33288
942	0	42319	32312	30964	28203
943	0	39431	38296	38334	26781
944	0	32250	27884	32158	27274
945	0	36382	38698	44422	40413
946	0	39209	41297	36280	37035
947	0	39358	30949	39221	44559
948	0	42112	36220	43583	31790
949	0	39242	40102	40552	41872
950	0	41931	30268	35250	31974
951	0	28761	34763	41240	34953
952	0	41690	38514	40960	29291
953	0	33934	31346	28140	28839
954	0	30943	33442	44780	38047
955	0	42891	43810	37744	32824
956	0	38361	40177	38671	36092
957	0	40341	37973	36180	35403
958	0	42796	40289	29626	28970
959	0	41421	43158	40316	41014
960	0	31795	40826	25621	35198
961	0	42310	31246	37963	38000
962	0	39065	39261	26386	43836
963	0	33213	31941	33445	26554
964	0	32847	41210	37982	31234
965	0	31924	35598	32996	39721
966	0	34640	35697	26463	37861
967	0	36099	35350	40515	26565
968	0	42249	38947	42005	26971
969	0	26603	42464	29474	29718
970	0	27055	32662	27739	37525
971	0	30172	38698	44247	44294
972	0	38675	33521	26410	38776
973	0	44852	29961	40686	39117
974	0	35790	29366	27500	34145
975	0	29073	44086	36805	38814
976	0	42362	28434	41326	33308
977	0	36508	28506	43618	27302
978	0	34668	33894	35101	34264
979	0	34306	43521	25715	32936
980	0	37487	27919	36459	32374
981	0	35982	41616	28268	27305
982	0	31076	30437	39613	36661
983	0	36830	29317	31480	34563
984	0	37693	33651	42293	28771
985	0	30134	28526	34706	34139
986	0	35032	36302	38533	35838
987	0	25940	34976	30434	26524
988	0	29908	44714	29943	44226
989	0	34849	31799	34032	30974
990	0	41175	38948	31139	40381
991	0	29939	39644	29843	33191
992	0	35515	32174	28373	37378
993	0	33752	35461	38407	26296
994	0	43009	42445	29454	35268
995	0	34853	25127	38787	42799
996	0	28784	26273	28055	27883
997	0	30798	28311	36442	26930
998	0	31548	26335	43701	28114
999	0	37708	29243	40710	44646
1000	0	29806	32806	35637	38222
1001	0	36034	35532	32338	33966
1002	0	34461	31336	28468	33348
1003	0	32548	30179	40505	39438
1004	0	36167	39613	39521	38090
1005	0	33627	32622	32940	37680
1006	0	44359	30544	33406	33651
1007	0	26406	39097	42437	44596
1008	0	34665	44331	27846	25500
1009	0	37698	44069	42983	25419
1010	0	28346	38345	29646	34134
1011	0	37840	31347	44469	35995
1012	0	29784	36035	32692	33942
1013	0	27293	26961	32733	32989
1014	0	41964	39454	28351	32606
1015	0	26859	31857	38950	29188
1016	0	26217	29389	40872	27939
1017	0	40006	30231	38301	28352
1018	0	27807	27178	32579	35811
1019	0	36144	29322	27272	25836
1020	0	39699	32827	43647	35708
1021	0	33933	38593	38469	27699
1022	0	34104	28053	26069	27532
1023	0	43019	41042	43620	42358
1024	0	34943	40996	35905	25214
1025	0	28427	42207	36786	34826
1026	0	43067	34743	27929	36338
1027	0	33796	41359	41749	32436
1028	0	32181	42968	25177	31152
1029	0	39956	33984	38646	44801
1030	0	26159	26479	44018	44199
1031	0	40075	38055	32379	29454
1032	0	32147	34885	25429	44884
1033	0	30814	40774	28574	34563
1034	0	44544	35191	41064	39302
1035	0	36150	42452	36110	25152
1036	0	28070	35701	37607	40074
1037	0	30240	28286	38776	36619
1038	0	33516	43531	37791	31048
1039	0	33748	41330	28231	26198
1040	0	36529	43914	39982	26412
1041	0	26582	30014	30628	25659
1042	0	41964	31889	42671	38780
1043	0	30260	32950	25241	37966
1044	0	33664	43577	44304	30109
1045	0	40105	31533	41726	32462
1046	0	41780	41793	43700	29079
1047	0	42561	29494	40620	42928
1048	0	31104	33784	43291	26790
1049	0	31423	37410	27322	25154
1050	0	41649	33298	28059	38342
1051	0	44462	44609	42874	44601
1052	0	44290	29154	25820	27683
1053	0	26275	40107	42105	43377
1054	0	28208	40660	27974	33972
1055	0	36224	37174	34562	28796
1056	0	30991	25222	34286	38750
1057	0	37589	26624	28989	43861
1058	0	42318	35538	36616	25702
1059	0	42225	35884	40938	39686
1060	0	44153	26202	31279	33815
1061	0	41706	37103	25375	40609
1062	0	43584	26669	40849	37589
1063	0	33639	40903	30583	38991
1064	0	26905	42513	36873	28312
1065	0	43631	37992	28616	40626
1066	0	27392	40008	41435	36226
1067	0	37201	33891	37697	35280
1068	0	35908	37145	34102	37942
1069	0	32912	39148	32138	44677
1070	0	35428	40481	35942	35091
1071	0	33121	44027	33074	30961
1072	0	37012	39908	30750	26717
1073	0	29142	32735	31385	30216
1074	0	40865	40444	27026	33369
1075	0	27564	36816	37559	28279
1076	0	43701	37157	41423	27199
1077	0	31211	26202	25145	38365
1078	0	31728	25081	37394	35631
1079	0	31206	30519	41130	25252
1080	0	33061	41347	42772	37517
1081	0	30172	30226	30786	39728
1082	0	34240	36062	44176	28118
1083	0	30046	32944	43813	29784
1084	0	32979	39418	30020	32357
1085	0	28269	40460	40087	35419
1086	0	27644	30921	28845	30743
1087	0	27427	35969	44083	40430
1088	0	40203	28811	26702	36459
1089	0	33353	39068	39767	29321
1090	0	43058	38782	38103	30259
1091	0	30779	40796	32140	38216
1092	0	38507	29778	43261	36868
1093	0	34534	34520	27244	36038
1094	0	44897	42351	43096	32061
1095	0	29752	25063	29676	43231
1096	0	40874	34363	26344	41212
1097	0	44018	29731	28168	25646
1098	0	26355	39080	28331	39582
1099	0	26753	38216	44952	26659
1100	0	44517	27131	35324	34044
1101	0	43077	29854	26436	38585
1102	0	41731	29831	31927	40362
1103	0	34801	28661	26962	36863
1104	0	42714	44273	42385	40404
1105	0	31100	43856	25688	27032
1106	0	37683	31597	36311	27202
1107	0	30765	36924	30141	38713
1108	0	39463	33763	26742	42508
1109	0	36743	31085	31794	28248
1110	0	37424	28287	36458	29127
1111	0	30144	32267	39116	42463
1112	0	28117	38316	32538	34339
1113	0	44438	34526	41254	37982
1114	0	40284	26007	29005	32358
1115	0	36379	30802	25080	38680
1116	0	35270	30382	35995	41683
1117	0	39590	31157	38580	40350
1118	0	33922	30054	33628	31837
1119	0	42686	43962	30361	43779
1120	0	36236	29015	38901	36642
1121	0	30504	39121	32897	26021
1122	0	35297	31870	33462	37640
1123	0	33768	33309	29310	30188
1124	0	36844	27477	43206	33243
1125	0	31205	31831	32310	42653
1126	0	33621	30335	40860	32350
1127	0	41793	39822	30861	37341
1128	0	38755	39362	31292	44559
1129	0	39093	42372	31173	36273
1130	0	40887	31848	38749	37542
1131	0	40244	44768	43070	41580
1132	0	34979	26487	27945	36116
1133	0	28778	31168	43546	31005
1134	0	41422	40460	29644	35923
1135	0	27379	28020	35515	38277
1136	0	31008	35861	26561	31402
1137	0	28980	42409	26446	32445
1138	0	33838	32889	38835	41477
1139	0	25148	38750	25817	28027
1140	0	34993	26072	33995	38841
1141	0	25788	38596	42964	38639
1142	0	32889	30251	37892	35812
1143	0	33054	33020	30653	28664
1144	0	31341	27223	40018	36316
1145	0	41537	32676	39536	28651
1146	0	31477	29396	31253	32218
1147	0	40535	41916	41562	28392
1148	0	28783	43817	36462	44883
1149	0	30468	44336	42370	41211
1150	0	36426	37669	26899	36116
1151	0	44391	41057	40483	42007
1152	0	32071	38015	27939	28943
1153	0	33061	29530	33609	42762
1154	0	39835	44706	44060	29673
1155	0	44400	34224	40222	33328
1156	0	38007	33841	41216	35418
1157	0	25714	39717	29863	42290
1158	0	41424	40358	32731	41501
1159	0	38975	37043	31140	42393
1160	0	34018	35054	40520	34921
1161	0	34952	43314	38990	44167
1162	0	25422	34683	39444	44299
1163	0	31813	35627	43202	25996
1164	0	33206	27231	26336	33499
1165	0	39040	34572	25219	43492
1166	0	27503	28166	32825	37716
1167	0	26866	35365	28909	35309
1168	0	25970	36875	35112	26000
1169	0	36857	37430	28382	38542
1170	0	43277	29782	28443	41922
1171	0	41633	38862	36314	26905
1172	0	42631	33703	41360	38717
1173	0	34325	42997	25930	35934
1174	0	28172	36584	28715	31233
1175	0	30146	29550	35286	29522
1176	0	25084	31714	34790	30803
1177	0	35754	27103	35328	25965
1178	0	36448	32687	39523	29486
1179	0	36092	38804	34726	44532
1180	0	39338	44351	39090	29634
1181	0	28924	40255	33416	40035
1182	0	33972	42599	31912	28360
1183	0	33665	42131	29303	29175
1184	0	35774	27331	28405	38929
1185	0	34815	44931	34010	36018
1186	0	35694	42263	40615	33944
1187	0	37994	44733	28906	31489
1188	0	28048	34673	26252	30845
1189	0	40811	29406	40631	32490
1190	0	38762	35779	39440	25628
1191	0	41846	36434	43499	26720
1192	0	44184	27680	37860	26611
1193	0	32101	44665	36990	38401
1194	0	39864	36906	39584	39743
1195	0	36962	40089	40012	35716
1196	0	42505	39790	26584	32115
1197	0	42776	43562	37095	26831
1198	0	25562	42419	40116	30746
1199	0	26923	36493	27849	30411
1200	0	28542	27393	35093	37527
1201	0	37257	39209	25212	40794
1202	0	44162	25435	32213	40328
1203	0	37699	42130	38961	38401
1204	0	36316	26054	37804	35053
1205	0	39470	37150	36767	27719
1206	0	43819	25737	43226	26910
1207	0	31395	32263	33040	40233
1208	0	41276	38709	43397	36893
1209	0	35693	26407	39613	33083
1210	0	44933	44302	40933	44311
1211	0	37558	34117	39459	27496
1212	0	36500	29476	28683	35470
1213	0	27195	41910	34692	28039
1214	0	32892	27810	41752	38267
1215	0	29748	44578	27908	44544
1216	0	39332	37505	33273	31572
1217	0	26330	33223	34653	32363
1218	0	43255	26082	33254	41373
1219	0	30629	32483	30267	35848
1220	0	31197	31646	25813	26188
1221	0	30229	30649	28967	25186
1222	0	35473	25532	28544	39040
1223	0	44289	42663	43676	27001
1224	0	33419	41614	25594	44059
1225	0	37546	36176	34213	30412
1226	0	25834	26406	36595	38511
1227	0	27994	37394	29474	41174
1228	0	31033	33748	27101	42715
1229	0	42493	28815	29905	44000
1230	0	41403	34392	35924	43865
1231	0	34407	31861	29417	26219
1232	0	39616	35973	25484	38053
1233	0	39695	34203	43185	41123
1234	0	36367	30542	34349	25154
1235	0	25068	33979	26164	27521
1236	0	27169	40679	29558	33721
1237	0	26869	30490	35064	31374
1238	0	37981	44796	42326	34965
1239	0	32726	37003	41677	40942
1240	0	42846	26804	44939	27479
1241	0	28064	35011	34741	31524
1242	0	41358	40037	43380	32589
1243	0	32006	34387	26991	38247
1244	0	43669	44844	25833	27744
1245	0	31619	38866	37864	34389
1246	0	25684	34044	36441	34861
1247	0	38425	31217	32458	25137
1248	0	25669	32922	32785	29036
1249	0	27663	30088	39171	42684
1250	0	29874	26490	34700	38481
1251	0	38115	35350	32367	37163
1252	0	27621	29148	25840	28600
1253	0	28968	31376	31391	30061
1254	0	26036	36606	31223	35824
1255	0	33522	32848	39433	40392
1256	0	33835	27033	41011	32874
1257	0	27086	34503	37992	36368
1258	0	33683	38905	34389	25965
1259	0	40798	35511	30381	40858
1260	0	42462	26663	27815	25843
1261	0	36197	29929	27455	44309
1262	0	39837	43935	37043	44343
1263	0	26102	32767	35871	43644
1264	0	29918	30721	41212	38031
1265	0	40075	29665	31712	42801
1266	0	31823	28927	34121	43106
1267	0	31818	38677	41644	44967
1268	0	25865	44251	41539	39381
1269	0	40795	38911	34042	42841
1270	0	32853	43105	27989	43827
1271	0	40226	34390	42000	41272
1272	0	39166	36848	26503	26900
1273	0	35676	29744	26668	37273
1274	0	29583	26138	26615	25875
1275	0	28843	40607	43268	42803
1276	0	43222	40322	40622	42117
1277	0	36340	38219	32001	36362
1278	0	26736	37709	33498	41514
1279	0	30518	30256	35047	41884
1280	0	35782	27677	40699	31930
1281	0	39670	36625	39494	30426
1282	0	25871	29064	31866	26332
1283	0	44246	26529	36455	36487
1284	0	30440	25248	43473	39195
1285	0	38059	31410	36624	41713
1286	0	44228	32546	33664	40000
1287	0	38018	34071	44926	35538
1288	0	40080	25748	29703	35630
1289	0	25818	35853	36011	36160
1290	0	41266	26401	42586	41687
1291	0	36813	28984	39223	28657
1292	0	36606	26633	33593	33285
1293	0	32420	30491	35904	36643
1294	0	27506	32105	38513	35010
1295	0	29520	33524	36952	39660
1296	0	28832	40902	30023	30163
1297	0	40488	39415	35616	37917
1298	0	32066	43711	26030	37288
1299	0	27881	28106	27465	42107
1300	0	29058	34634	33367	44160
1301	0	28884	34145	27454	35998
1302	0	36153	27647	39241	40247
1303	0	44304	26323	41575	36384
1304	0	26794	38090	39967	40232
1305	0	32881	37764	40301	40976
1306	0	39257	43871	31345	31306
1307	0	32661	33629	37953	44835
1308	0	40839	25676	25590	35684
1309	0	27552	36709	30963	41472
1310	0	44260	37612	38372	33483
1311	0	38491	42556	30405	34505
1312	0	30914	27395	37722	29092
1313	0	34205	25484	44842	42676
1314	0	34217	30936	26226	40125
1315	0	31977	29737	29972	42104
1316	0	33913	28546	30330	28457
1317	0	31413	33350	28312	42375
1318	0	37965	33288	27360	32107
1319	0	38529	41838	44210	28869
1320	0	29986	30456	28576	30774
1321	0	33056	32137	38474	26425
1322	0	43244	32795	32507	31040
1323	0	33948	40340	30835	27827
1324	0	32309	40466	30123	34297
1325	0	35562	30232	35164	32485
1326	0	36525	30289	32106	38304
1327	0	38174	37047	34005	27957
1328	0	25874	29130	29008	40627
1329	0	37613	34479	35678	25681
1330	0	27031	28880	35132	35281
1331	0	33183	44093	37691	42725
1332	0	28952	33482	26299	31856
1333	0	36737	32498	40380	35203
1334	0	29342	34874	35733	42223
1335	0	33146	41622	34214	44109
1336	0	35289	40914	39476	32349
1337	0	40553	43491	35188	34492
1338	0	38963	39356	35291	28037
1339	0	32219	41616	44096	43192
1340	0	25915	26522	26395	29696
1341	0	30962	30752	33240	34680
1342	0	25041	33606	34126	43048
1343	0	40219	40879	32447	32760
1344	0	31862	40491	27876	42349
1345	0	32493	31177	37850	33990
1346	0	43855	34733	44052	39259
1347	0	28158	33397	32532	44840
1348	0	25691	43796	40037	31574
1349	0	39836	42961	29593	36836
1350	0	34828	29255	42647	40037
1351	0	38719	32910	43296	40813
1352	0	32962	33489	32664	40737
1353	0	36905	25661	29663	35662
1354	0	37427	25926	36702	41590
1355	0	41714	33613	36838	29053
1356	0	38764	41791	37291	43562
1357	0	27245	42315	39415	34001
1358	0	41842	33532	44672	42923
1359	0	39816	32550	30921	34601
1360	0	42138	37901	31876	39964
1361	0	30458	37716	36573	40640
1362	0	44442	39210	43638	26753
1363	0	44791	31699	32777	38732
1364	0	31628	32722	39031	38793
1365	0	32079	44064	26209	40689
1366	0	38553	25977	32378	32389
1367	0	28188	32260	34472	37275
1368	0	39612	29834	44127	42872
1369	0	34677	40145	41884	44830
1370	0	31752	40051	41197	38201
1371	0	44170	29012	34822	43571
1372	0	31879	43272	26269	28458
1373	0	29949	39238	32862	35102
1374	0	39297	26553	33136	28716
1375	0	42953	31050	26954	36777
1376	0	43112	37142	35960	42181
1377	0	26643	41163	40999	34469
1378	0	36324	28759	40480	35992
1379	0	44065	35398	27499	26513
1380	0	27056	34741	43702	33866
1381	0	42052	37461	27281	36456
1382	0	35127	41581	33009	38043
1383	0	33084	38886	26639	28275
1384	0	27677	39817	31446	43721
1385	0	30026	31768	31848	42719
1386	0	25905	32376	44433	33554
1387	0	43438	43749	42294	39123
1388	0	40985	31017	28772	44349
1389	0	38391	39429	32899	43549
1390	0	33317	35631	39384	36074
1391	0	39643	30629	27011	36630
1392	0	30548	38029	38542	36607
1393	0	27056	35263	35113	26044
1394	0	40399	39359	25247	34929
1395	0	29826	42187	25371	29977
1396	0	39595	42322	26402	39977
1397	0	37094	26173	33247	25800
1398	0	30322	42821	43232	36661
1399	0	38436	31743	44379	27976
1400	0	42000	41368	25740	31161
1401	0	35380	43582	29165	35883
1402	0	29124	34247	43146	35227
1403	0	31529	28500	34141	28721
1404	0	25908	43067	29399	31774
1405	0	39035	34480	40961	26113
1406	0	43999	27400	42952	34015
1407	0	41189	26232	33644	39385
1408	0	43878	33140	27780	25509
1409	0	39096	34415	44764	34714
1410	0	33246	44766	43401	32842
1411	0	36097	34992	40501	25778
1412	0	43817	44674	31103	39249
1413	0	41065	35587	37653	31143
1414	0	31150	28994	42786	42614
1415	0	33034	35210	30045	39023
1416	0	40575	36898	31846	29968
1417	0	36176	34557	34917	33135
1418	0	25006	32473	34527	26521
1419	0	29694	32880	35461	33649
1420	0	30663	40210	39315	31124
1421	0	25401	35251	27868	44200
1422	0	35658	43959	33530	40082
1423	0	26967	36266	26019	42164
1424	0	28170	35532	30914	37029
1425	0	38957	25055	31422	29075
1426	0	26266	33865	31194	44733
1427	0	44388	29261	43686	28730
1428	0	33913	40994	35267	33775
1429	0	41938	26658	37400	41754
1430	0	37608	27439	27961	34440
1431	0	40598	39786	41386	44297
1432	0	40213	32107	35468	36152
1433	0	40282	42364	39158	37288
1434	0	31391	32066	34552	40500
1435	0	44065	35651	34646	44035
1436	0	42809	29092	44855	33296
1437	0	37645	31026	36807	42530
1438	0	37403	44893	25883	29115
1439	0	35489	34951	41456	30397
1440	0	31661	39099	34495	27360
1441	0	42917	30067	39353	44874
1442	0	41108	36431	40733	25530
1443	0	42796	26080	25103	39164
1444	0	31602	34565	28465	31907
1445	0	40264	42762	30298	41368
1446	0	31566	40189	40757	29844
1447	0	31976	41546	33078	28842
1448	0	40369	26373	39828	38104
1449	0	36861	44714	35076	38297
1450	0	44419	28025	37352	31984
1451	0	41048	28852	44164	36808
1452	0	32450	37171	35435	42607
1453	0	30507	37072	44119	40590
1454	0	40864	27254	39524	34331
1455	0	31560	38569	37596	38123
1456	0	36254	40379	42165	35018
1457	0	35903	28069	34780	35101
1458	0	28524	29855	35568	29769
1459	0	32525	28481	32678	35534
1460	0	29453	28468	35617	42806
1461	0	41734	31520	43301	29274
1462	0	32635	36694	37533	41152
1463	0	30685	38499	31924	38333
1464	0	25607	26145	42257	30969
1465	0	39363	31224	41693	43566
1466	0	32393	34469	42527	28521
1467	0	44559	30550	41531	33615
1468	0	34018	44133	35663	37658
1469	0	26776	34357	33131	25306
1470	0	44328	25579	34571	31493
1471	0	42516	28448	31938	44468
1472	0	43218	28165	41828	42268
1473	0	33835	29504	28083	26196
1474	0	34236	40136	30292	37079
1475	0	37760	42322	33242	35976
1476	0	29732	32378	36595	41587
1477	0	39662	42023	30590	25944
1478	0	26196	32195	36848	34445
1479	0	40968	36098	26178	34156
1480	0	43913	27234	39411	34519
1481	0	36838	31683	29243	33771
1482	0	30365	34868	27085	27589
1483	0	43020	39656	33749	41809
1484	0	38890	41277	30073	26372
1485	0	31331	38444	38862	44740
1486	0	36585	30872	29849	31349
1487	0	36381	37334	30806	41504
1488	0	41214	33104	44714	34494
1489	0	32669	37312	29271	30442
1490	0	37359	42011	34659	29031
1491	0	27897	34144	32328	39158
1492	0	39831	39651	32997	32516
1493	0	26797	28131	31047	44378
1494	0	40739	33199	42270	42827
1495	0	35221	27113	32536	29062
1496	0	44279	43072	44696	34320
1497	0	43341	32387	40781	30953
1498	0	34859	41996	34123	34280
1499	0	44167	32325	44966	28351
1500	0	36680	44738	31767	26698
1501	0	36436	30984	38784	43299
1502	0	36111	26151	25147	29857
1503	0	38867	30374	34161	25762
1504	0	42875	25242	35782	31077
1505	0	33835	39350	38168	36301
1506	0	34358	35732	43404	26312
1507	0	37416	40513	29131	34205
1508	0	42022	29182	26668	43457
1509	0	41031	38440	33268	37256
1510	0	43010	31898	28509	40183
1511	0	25637	33038	28572	29546
1512	0	41980	40008	25913	30397
1513	0	28239	40407	44959	39638
1514	0	43909	34651	34363	44082
1515	0	34850	34118	44605	27085
1516	0	27281	35435	29222	29277
1517	0	32245	30564	42252	35537
1518	0	29670	28790	26173	41560
1519	0	31576	31514	31303	32489
1520	0	25373	42482	36452	37057
1521	0	30968	36520	26990	38184
1522	0	34497	30708	39641	33077
1523	0	25018	40654	35196	31757
1524	0	33835	41209	34524	29018
1525	0	28358	31714	39420	28531
1526	0	25844	40662	44510	39110
1527	0	42255	33643	27444	33905
1528	0	29143	31709	27748	35561
1529	0	29540	34166	32621	40245
1530	0	36456	34800	40758	44076
1531	0	40538	29394	29728	42331
1532	0	39804	25613	38688	37377
1533	0	44917	42171	33118	36276
1534	0	43056	44617	28222	31777
1535	0	29715	28851	28272	25950
1536	0	35472	38652	43191	29594
1537	0	31399	30699	38319	35023
1538	0	38778	42821	28286	34966
1539	0	35917	38539	31052	32164
1540	0	27260	29652	43664	33952
1541	0	38489	35867	39573	34221
1542	0	36067	39137	42109	41316
1543	0	35999	38956	39224	44142
1544	0	29810	29791	25278	44638
1545	0	28234	31467	41978	27869
1546	0	39297	39302	25802	42363
1547	0	30894	26469	26709	29973
1548	0	43467	39572	41900	36144
1549	0	28427	29296	38142	38766
1550	0	43263	35859	41119	37812
1551	0	40268	34672	37519	25961
1552	0	41504	27836	27398	28866
1553	0	28193	25784	41029	38405
1554	0	40683	30988	31497	44756
1555	0	30158	33341	35274	41129
1556	0	36842	30392	42076	42478
1557	0	34237	36147	42076	30773
1558	0	34322	34804	29704	26485
1559	0	32329	34836	38019	28322
1560	0	28448	41176	36728	43052
1561	0	28427	27468	31061	37083
1562	0	38136	28961	40918	30554
1563	0	28779	43393	43430	44553
1564	0	44916	29860	37431	33674
1565	0	39063	31805	34375	28027
1566	0	37267	29230	41127	39280
1567	0	27871	31619	40582	41693
1568	0	33592	31209	40650	25294
1569	0	27587	39315	30229	35832
1570	0	41421	27961	29821	42315
1571	0	43179	35239	37136	40603
1572	0	26123	37915	36508	27044
1573	0	28933	27411	44447	31610
1574	0	28933	31701	27957	36894
1575	0	25863	25461	39590	34249
1576	0	25834	37975	25407	33561
1577	0	31885	25309	42336	32364
1578	0	42664	25788	40700	29662
1579	0	27588	41013	35116	42384
1580	0	40874	43848	44692	33770
1581	0	37264	39074	43290	44878
1582	0	35596	26588	30310	44590
1583	0	41114	41236	28901	44220
1584	0	27639	40143	43292	37375
1585	0	35781	31119	44567	40712
1586	0	31041	40312	38449	42726
1587	0	29310	25650	37133	37630
1588	0	41777	36052	25341	26372
1589	0	26927	28555	35820	34553
1590	0	29719	37176	34158	42540
1591	0	38558	33545	33657	40614
1592	0	31629	33451	41797	43678
1593	0	44886	36751	43205	27332
1594	0	29073	28739	42382	43807
1595	0	25354	29431	35159	39217
1596	0	43093	25392	40314	38235
1597	0	34044	43797	25842	33637
1598	0	25806	37422	41617	30871
1599	0	42671	37296	33051	38546
1600	0	28426	26407	27696	39744
1601	0	40823	36813	30442	33567
1602	0	27476	36103	44555	41005
1603	0	32140	42983	41391	32413
1604	0	32120	36329	33067	44032
1605	0	40890	35792	33407	34051
1606	0	40288	34880	36753	42903
1607	0	38865	26910	32955	31140
1608	0	36290	28337	30953	36142
1609	0	29444	31127	37923	41259
1610	0	26588	43025	43201	28718
1611	0	42850	25272	32699	42461
1612	0	30623	42433	27991	34924
1613	0	33527	39207	33454	25622
1614	0	36144	26015	31318	41052
1615	0	35142	26825	43964	43999
1616	0	27763	25728	29233	25935
1617	0	27418	35738	29731	25668
1618	0	26025	32637	34269	43540
1619	0	32403	29023	27007	32605
1620	0	26090	28227	30841	43311
1621	0	26456	42878	35735	33174
1622	0	38120	43950	38823	43847
1623	0	30895	37767	31106	25013
1624	0	38311	38795	36843	38736
1625	0	38070	33515	33209	34308
1626	0	34703	42445	42119	44418
1627	0	34481	27303	26775	44885
1628	0	29059	30190	31144	35791
1629	0	32071	27878	31891	29380
1630	0	31379	40498	37467	42956
1631	0	33884	40777	38963	40388
1632	0	25235	39855	35986	39757
1633	0	44809	40551	43502	28786
1634	0	35660	41872	35403	42327
1635	0	42506	26713	28619	25990
1636	0	26603	32061	36980	42956
1637	0	25152	43917	30677	41504
1638	0	27588	39924	27193	39781
1639	0	28995	35531	27287	35604
1640	0	27197	31073	39112	28798
1641	0	25503	42029	41682	43064
1642	0	42278	31547	40085	26863
1643	0	43366	27933	43614	41261
1644	0	35969	34024	25696	27362
1645	0	37900	26574	28485	33500
1646	0	39172	29787	34521	40422
1647	0	28097	37869	30025	26432
1648	0	27130	27626	36676	33972
1649	0	39949	35674	33931	30576
1650	0	32795	31644	30144	29345
1651	0	33565	39825	43302	41893
1652	0	29593	42504	25355	39655
1653	0	36223	31368	26524	25929
1654	0	33575	41861	27862	26785
1655	0	27898	31060	27278	34788
1656	0	33386	34030	44691	30661
1657	0	37315	31953	41930	31633
1658	0	25321	28448	44239	38394
1659	0	37551	34411	42376	39703
1660	0	37309	40957	32673	30758
1661	0	29675	25152	30573	40911
1662	0	43633	25891	28839	31621
1663	0	44279	33753	41431	37322
1664	0	34257	42374	27317	38439
1665	0	25046	36260	43939	30502
1666	0	25498	26191	27251	41747
1667	0	42287	44671	31869	35334
1668	0	30657	34064	44742	37672
1669	0	39209	31367	35632	27302
1670	0	27906	33047	38384	28940
1671	0	36932	33814	32542	27254
1672	0	28654	44307	26836	41960
1673	0	30863	37871	25331	26950
1674	0	26204	33004	43190	42169
1675	0	29425	33707	31841	39037
1676	0	35346	42307	42796	34772
1677	0	38313	26414	43395	35726
1678	0	34286	40749	33368	43380
1679	0	42812	36638	30010	29327
1680	0	30944	32902	25734	34924
1681	0	28200	37911	29688	41059
1682	0	28240	31336	34178	39631
1683	0	43674	40254	42804	32129
1684	0	25532	42454	28971	36564
1685	0	43659	29566	36273	28036
1686	0	28055	29066	43883	30031
1687	0	27156	42289	35688	26867
1688	0	35314	33059	40124	38200
1689	0	32885	33528	35522	33990
1690	0	25049	39226	27880	40324
1691	0	39872	42666	30515	38128
1692	0	34022	34122	38388	29277
1693	0	35744	30140	41641	30382
1694	0	25567	34761	39767	44261
1695	0	40090	25310	37183	28936
1696	0	34009	28343	38264	26242
1697	0	42369	30977	32762	27659
1698	0	26902	44551	43767	28362
1699	0	38240	32201	32451	30474
1700	0	28569	41221	42413	35844
1701	0	41121	36068	44752	44325
1702	0	43278	32130	29807	43301
1703	0	27544	35445	40948	39897
1704	0	43164	36549	38747	29186
1705	0	29635	28797	26604	28627
1706	0	25862	40019	44122	26801
1707	0	41669	34044	33012	37262
1708	0	43251	27158	44313	28522
1709	0	31036	26554	34407	38627
1710	0	34327	35469	32375	30941
1711	0	28262	38446	30123	32910
1712	0	43625	31388	31068	39904
1713	0	40617	32107	31929	37802
1714	0	31113	43333	30737	42342
1715	0	42431	34948	35204	44349
1716	0	36341	41875	30444	32558
1717	0	43735	25869	40063	25153
1718	0	40377	43622	34725	28347
1719	0	34607	33178	43352	42456
1720	0	35648	26732	25371	41134
1721	0	38519	34240	25774	40978
1722	0	41726	38909	29308	36378
1723	0	33837	36758	35554	38740
1724	0	34625	32450	28709	38314
1725	0	40044	25707	31643	39660
1726	0	31559	36218	41848	35471
1727	0	32069	27226	39399	33128
1728	0	26688	27700	35404	32526
1729	0	38254	32524	41800	38192
1730	0	33047	30772	28381	44735
1731	0	34470	25677	39279	33963
1732	0	40382	25269	34692	32674
1733	0	26169	44833	40159	32900
1734	0	28172	25810	36715	32234
1735	0	29453	40988	42532	36179
1736	0	40648	44971	32254	40585
1737	0	25598	34988	36223	34927
1738	0	28066	38799	42432	44376
1739	0	44748	42076	28275	44274
1740	0	44135	38817	41543	37238
1741	0	39876	29147	29069	42230
1742	0	28789	35533	26130	35307
1743	0	28542	28301	31248	33039
1744	0	26440	37835	26517	36408
1745	0	39971	32088	25120	26711
1746	0	39320	27953	30349	36258
1747	0	41244	36191	28458	26548
1748	0	32168	35032	41447	44919
1749	0	28567	30710	41317	43713
1750	0	33997	38126	35326	34335
1751	0	40276	33751	44406	40726
1752	0	34974	44746	28882	31990
1753	0	25455	37935	43169	41495
1754	0	36313	35823	33857	30153
1755	0	34547	34693	40483	43270
1756	0	35099	35291	42640	37142
1757	0	32122	29705	44740	41305
1758	0	30335	32499	26155	27981
1759	0	27928	42317	34970	39022
1760	0	32097	42100	31062	43380
1761	0	38065	28169	34725	44367
1762	0	28888	41971	32785	41179
1763	0	40310	35100	28702	25411
1764	0	30189	34029	29863	25369
1765	0	38893	44927	34327	38385
1766	0	42525	42092	31185	44211
1767	0	26948	29660	34828	27468
1768	0	33429	29991	39968	28911
1769	0	31155	31327	36122	30092
1770	0	33493	30582	36221	28088
1771	0	28512	38864	31860	33562
1772	0	29144	33619	37967	43883
1773	0	26538	35412	30471	42211
1774	0	43116	38083	43570	31640
1775	0	27938	35232	25277	41731
1776	0	38056	40513	37785	26055
1777	0	36096	33580	25074	35474
1778	0	32443	39337	42878	33158
1779	0	38138	31967	36057	30373
1780	0	29840	35695	36800	40389
1781	0	35117	33267	33137	38275
1782	0	43996	43296	30925	32622
1783	0	39763	32816	36428	28877
1784	0	35691	38698	38127	31083
1785	0	40923	28179	41274	26770
1786	0	28902	34049	25942	25296
1787	0	37810	44492	35911	26752
1788	0	40200	39514	36413	42967
1789	0	30228	39390	33400	35175
1790	0	28423	42310	42102	29985
1791	0	25526	39963	35742	38836
1792	0	26147	40432	36001	29199
1793	0	26191	30850	37162	44266
1794	0	35953	26812	32975	26780
1795	0	29782	28740	31083	39432
1796	0	25751	41855	34743	25106
1797	0	27800	31701	42429	42844
1798	0	29465	35437	25545	30527
1799	0	36876	43494	36913	41561
1800	0	37561	28137	40155	32753
1801	0	26329	32158	30210	33341
1802	0	25220	30135	39365	43498
1803	0	25964	29644	39297	42389
1804	0	29483	35432	31457	38849
1805	0	35422	36563	38953	38714
1806	0	39829	27970	27055	43779
1807	0	32593	27650	32328	40615
1808	0	39937	25499	29049	30707
1809	0	25668	28208	35850	32789
1810	0	36561	41376	25395	40599
1811	0	41176	37498	44127	37883
1812	0	28935	38877	38395	25424
1813	0	40416	37276	33853	31341
1814	0	32811	32513	36899	36290
1815	0	36744	25055	31931	33443
1816	0	40618	36795	33775	38879
1817	0	41301	36135	40812	37822
1818	0	37157	30647	28340	34544
1819	0	32549	32196	44688	31882
1820	0	44283	37448	42830	30431
1821	0	25514	28317	39209	26692
1822	0	29656	35206	41187	38950
1823	0	38932	30991	43413	34417
1824	0	30164	25963	40985	43779
1825	0	25839	43994	36707	28662
1826	0	29423	34327	39122	44692
1827	0	31102	44687	44539	44301
1828	0	39538	38181	32621	27573
1829	0	30222	41373	25818	44986
1830	0	44732	28531	42143	43169
1831	0	42441	27673	32689	43329
1832	0	34373	28772	41277	26246
1833	0	28078	32199	27258	34895
1834	0	32059	38404	36887	38605
1835	0	27012	25592	43080	33924
1836	0	28526	25834	28066	44239
1837	0	38506	31243	41751	35651
1838	0	30023	37131	42457	40348
1839	0	34451	25542	41732	28376
1840	0	39326	25007	37176	36780
1841	0	36701	39408	32423	37044
1842	0	30978	38466	40850	43462
1843	0	29213	36392	44905	26775
1844	0	33603	32455	40172	41811
1845	0	33414	32750	40950	40939
1846	0	30359	36566	28170	35269
1847	0	38570	40793	35511	32669
1848	0	33993	31948	27377	43567
1849	0	28009	32894	35521	38331
1850	0	25875	38769	28496	42349
1851	0	40183	29783	31221	26913
1852	0	34284	40949	31901	29862
1853	0	38851	37409	26197	34563
1854	0	30376	31457	42758	37755
1855	0	32186	44525	25539	40305
1856	0	37034	34421	36755	33952
1857	0	35261	28823	43568	44851
1858	0	29627	39687	29718	41317
1859	0	25375	28544	43889	40003
1860	0	28459	36247	30579	29397
1861	0	37178	41851	38064	42714
1862	0	43869	26024	41007	41053
1863	0	40572	27092	41934	30299
1864	0	36293	33816	32934	40114
1865	0	31566	33652	28239	27494
1866	0	32911	42109	34383	27093
1867	0	34974	40293	31922	27096
1868	0	26306	34332	32147	43033
1869	0	38992	27286	37705	42799
1870	0	28592	26391	33803	29947
1871	0	36916	27441	26236	38510
1872	0	35636	40815	43894	32612
1873	0	42453	43915	26883	27065
1874	0	29090	34470	41832	41130
1875	0	25882	44393	29511	33314
1876	0	35389	38597	40674	38756
1877	0	35902	43720	33493	27571
1878	0	28984	31741	35078	28563
1879	0	35549	42371	37997	32727
1880	0	25780	34011	42342	35989
1881	0	25261	35318	38763	28227
1882	0	43810	31247	34252	25170
1883	0	42455	35898	42198	44775
1884	0	38833	33198	42597	40351
1885	0	43903	43319	31437	34489
1886	0	34282	41421	41764	38716
1887	0	34330	32674	42563	39656
1888	0	33664	44007	43434	34137
1889	0	32456	30989	44773	42135
1890	0	41750	26117	37325	31235
1891	0	40922	40500	36689	30307
1892	0	34324	39493	44996	44620
1893	0	33221	27647	30107	38319
1894	0	41355	34847	35252	37103
1895	0	42788	26196	36046	34570
1896	0	29603	44700	42899	36667
1897	0	44233	32357	36210	34459
1898	0	33143	30656	30417	27556
1899	0	43570	38216	34084	34239
1900	0	25581	31718	38887	27989
1901	0	33011	29183	25248	36752
1902	0	27180	39511	41435	26201
1903	0	44781	30547	33336	41170
1904	0	40409	27578	40641	41594
1905	0	43911	43260	32850	42361
1906	0	42857	25635	27027	31971
1907	0	32808	40917	40789	43963
1908	0	37086	32670	31618	42777
1909	0	36061	29573	25460	29959
1910	0	37240	25687	25289	41898
1911	0	26279	26539	40748	39056
1912	0	27219	33504	32515	34164
1913	0	28218	28520	37174	43337
1914	0	30552	41622	31316	30436
1915	0	32369	29666	36204	42116
1916	0	38154	44254	28400	25553
1917	0	29514	31122	33017	32871
1918	0	31645	36101	30157	38756
1919	0	25967	39309	30080	41629
1920	0	42379	34525	35404	34644
1921	0	41706	39309	28660	38071
1922	0	29261	32455	44369	40141
1923	0	32124	37310	38549	29548
1924	0	41425	34159	28709	44218
1925	0	43663	37236	41663	33735
1926	0	25929	31853	36277	42328
1927	0	35330	33349	29914	37621
1928	0	44659	29916	32696	43920
1929	0	37336	30890	44004	38758
1930	0	38288	30202	29734	26503
1931	0	27529	44102	29178	35584
1932	0	29540	25048	41287	25195
1933	0	38991	26482	38954	42017
1934	0	38940	29001	27950	41087
1935	0	27465	42425	32475	31194
1936	0	29998	33235	44940	26365
1937	0	31359	40416	33599	25864
1938	0	35719	36191	28771	31851
1939	0	44692	25406	25992	26995
1940	0	35492	26194	28293	35056
1941	0	33651	28630	34834	25357
1942	0	41219	38129	27041	43844
1943	0	34761	34936	32955	31200
1944	0	33366	38080	42133	29123
1945	0	40625	26977	30734	26071
1946	0	34148	31910	40464	42703
1947	0	44930	28445	41075	28556
1948	0	44059	32529	26082	35161
1949	0	35060	27459	36859	31864
1950	0	42829	31834	43689	28302
1951	0	37087	27726	28583	38066
1952	0	29773	26629	37385	39143
1953	0	29953	28752	40199	43625
1954	0	39754	34589	29883	26319
1955	0	38931	39243	34877	40765
1956	0	41018	25582	27112	36051
1957	0	26513	32400	39795	35100
1958	0	43393	38308	27660	35270
1959	0	28673	38746	28678	39357
1960	0	26951	33166	29516	35031
1961	0	29054	43989	42268	37955
1962	0	27889	43750	40067	42624
1963	0	43958	35800	28072	34679
1964	0	42993	39871	32866	27851
1965	0	40465	28139	44856	44017
1966	0	33348	44102	43997	43394
1967	0	37695	36780	42943	30673
1968	0	29199	29094	26604	35557
1969	0	43828	28474	31861	28881
1970	0	29218	39340	37211	35086
1971	0	40262	34323	36584	34606
1972	0	27042	30646	44032	43838
1973	0	42571	31745	37564	43267
1974	0	42832	42822	30276	36521
1975	0	40404	44818	41558	30679
1976	0	28410	38014	28525	38327
1977	0	29378	38091	32255	43303
1978	0	33607	37574	34232	28867
1979	0	34045	38913	44679	26651
1980	0	34629	35883	31058	40374
1981	0	43958	26078	38055	41033
1982	0	26425	30904	26908	30911
1983	0	35424	33965	40351	35567
1984	0	35858	27523	36215	26262
1985	0	44287	36527	27833	33621
1986	0	29670	31453	44637	40895
1987	0	44376	34917	32184	33385
1988	0	35861	44597	26236	41108
1989	0	41127	39746	43216	40935
1990	0	44160	40486	36387	34142
1991	0	43414	26521	35461	30727
1992	0	44084	39536	26613	43754
1993	0	37450	43047	43323	28051
1994	0	38131	32846	42255	38270
1995	0	41897	38604	38627	42281
1996	0	34135	29539	41078	32663
1997	0	35764	38143	42412	40447
1998	0	35161	43519	34027	41671
1999	0	26355	34793	31889	34046
2000	0	25335	43820	30355	34095
2001	0	35341	27662	32914	37878
2002	0	38957	26566	34343	37453
2003	0	26364	43223	36462	26317
2004	0	42093	29121	40902	34704
2005	0	42995	27212	34278	44882
2006	0	32471	27829	39565	34886
2007	0	43541	26201	28238	37706
2008	0	43963	40529	26519	38487
2009	0	42979	32246	29515	35256
2010	0	26788	37530	33926	31175
2011	0	27054	25524	25412	44666
2012	0	27952	34245	29551	36814
2013	0	40913	30205	29552	37010
2014	0	35151	44682	44836	39556
2015	0	41308	38033	32090	42001
2016	0	27646	39324	36296	29821
2017	0	43986	34007	41047	30789
2018	0	28190	37858	44834	29714
2019	0	33887	28789	34643	41799
2020	0	37594	36921	42262	32403
2021	0	32550	44283	25527	40046
2022	0	43302	27955	37721	31901
2023	0	34645	31137	30593	31631
2024	0	37017	40611	37240	32015
2025	0	35625	39634	37068	27493
2026	0	36862	36250	40851	30623
2027	0	29651	41196	39987	29243
2028	0	30039	31245	25405	26253
2029	0	26811	39730	29167	29482
2030	0	33496	37849	30452	26871
2031	0	27544	25785	40057	42944
2032	0	25650	43028	37800	44857
2033	0	29630	33018	27713	35707
2034	0	37874	34657	25768	30795
2035	0	38300	34641	36385	33004
2036	0	41721	42656	36186	43275
2037	0	44387	33370	33817	29189
2038	0	25446	31169	32349	39830
2039	0	35234	37130	30703	37364
2040	0	27258	43392	43024	34014
2041	0	40507	36993	40956	27274
2042	0	28174	34497	37935	38493
2043	0	40542	30915	41205	38582
2044	0	27548	36083	26209	43870
2045	0	30738	42264	28525	25542
2046	0	34546	36088	25539	43472
2047	0	37040	38871	29691	39270
2048	0	25765	36508	28886	35595
2049	0	42659	41005	43224	39641
2050	0	26241	40764	43277	34450
2051	0	36156	25471	27860	27501
2052	0	42496	37238	38524	37897
2053	0	40376	38830	32117	44812
2054	0	36998	33290	35713	38742
2055	0	37939	25200	43619	29893
2056	0	26738	38394	42376	36821
2057	0	42145	29186	30904	42439
2058	0	37893	43087	31926	32952
2059	0	33199	32122	39124	27715
2060	0	30428	30242	29668	38494
2061	0	41659	28238	41212	34677
2062	0	42993	36370	42066	41523
2063	0	36656	40564	25121	39862
2064	0	42431	25099	33451	41123
2065	0	44541	39275	39229	25979
2066	0	29193	31460	42600	40966
2067	0	36752	32403	40960	34190
2068	0	28668	43030	31522	33684
2069	0	33976	39664	30725	40130
2070	0	40047	26864	34739	42377
2071	0	33742	35264	36004	33880
2072	0	30251	42493	44650	28179
2073	0	32098	35079	32169	32785
2074	0	41376	37133	38891	42170
2075	0	43332	39205	38141	35127
2076	0	38480	33209	25601	34744
2077	0	33936	35015	33049	43512
2078	0	39608	39613	32600	40965
2079	0	44357	31862	35969	30561
2080	0	33028	39626	39390	27939
2081	0	35254	25910	35803	26096
2082	0	28417	29879	26855	35626
2083	0	25086	28271	28381	41925
2084	0	32911	41538	27570	28293
2085	0	30908	43401	41930	25209
2086	0	31303	41788	39873	30849
2087	0	42166	30166	27561	29852
2088	0	32553	29870	39569	42374
2089	0	44349	28608	31154	26245
2090	0	32298	35432	43024	44340
2091	0	41608	36585	27886	39967
2092	0	34824	34276	26529	38672
2093	0	41974	43114	31633	28368
2094	0	30328	39334	38421	33540
2095	0	25118	33275	30605	37450
2096	0	28009	25352	40198	37455
2097	0	40390	35344	34804	34599
2098	0	31561	43717	38399	41026
2099	0	30527	28580	44756	38043
2100	0	43519	26511	36469	34299
2101	0	33812	29557	36868	26086
2102	0	37666	41599	32101	30508
2103	0	44419	40746	37084	44234
2104	0	42222	38688	42277	32585
2105	0	37922	27775	26704	28552
2106	0	27621	29802	31708	35302
2107	0	32561	32423	34143	25740
2108	0	33602	38249	41021	39925
2109	0	41155	43121	25231	36653
2110	0	27246	39488	30818	40698
2111	0	32150	25672	30017	35679
2112	0	39814	44306	36298	38353
2113	0	36273	39049	38063	36711
2114	0	42589	27191	34595	27680
2115	0	28038	27196	42451	44306
2116	0	27036	40971	35389	37473
2117	0	36819	37426	37553	40601
2118	0	32765	35970	27485	32729
2119	0	27025	32843	40204	26525
2120	0	40669	40994	28277	30773
2121	0	29487	31813	35471	43715
2122	0	38936	31710	40609	28845
2123	0	31988	42506	35554	29532
2124	0	33878	33920	36806	26980
2125	0	27339	36526	25742	36651
2126	0	35348	30768	32184	33409
2127	0	36928	30537	42410	27057
2128	0	33383	27669	30930	30751
2129	0	27790	35216	39412	32675
2130	0	36299	34525	34585	26372
2131	0	40518	38867	33481	26928
2132	0	37186	33015	27549	35587
2133	0	37129	41214	34778	42675
2134	0	25704	44493	31429	32085
2135	0	32259	35147	32504	36770
2136	0	40581	39123	30052	27383
2137	0	30330	40060	39508	36010
2138	0	34044	34782	40388	43983
2139	0	33003	37712	36940	37969
2140	0	28427	27976	36041	40421
2141	0	30211	34351	26934	38700
2142	0	39456	25723	28139	30482
2143	0	26319	34519	42818	29411
2144	0	30049	42041	32389	28071
2145	0	28211	34473	43710	43425
2146	0	43449	27028	28887	31101
2147	0	34516	38762	30162	43196
2148	0	31573	37853	40591	42581
2149	0	44140	25245	35768	29445
2150	0	36449	37273	40622	42182
2151	0	44710	35981	31100	32090
2152	0	37166	34677	43102	25147
2153	0	38614	31568	42573	33987
2154	0	32314	28321	40577	34035
2155	0	34018	40997	30190	38164
2156	0	37045	31915	25859	34767
2157	0	42648	30716	44538	36649
2158	0	28807	34054	40359	43855
2159	0	29667	26228	44735	39174
2160	0	42495	25836	42622	31100
2161	0	28617	39298	32019	38916
2162	0	44724	34235	42588	44485
2163	0	29857	29693	30601	25129
2164	0	43077	26561	26474	43623
2165	0	25365	35555	32786	29952
2166	0	28982	30647	43391	39946
2167	0	40959	34270	39082	33323
2168	0	42059	31465	44894	31810
2169	0	41306	44169	30267	33699
2170	0	44015	33625	44815	30335
2171	0	27555	29118	38087	37331
2172	0	37251	42680	33401	27489
2173	0	38997	31114	44256	35496
2174	0	32590	36641	42785	36732
2175	0	44869	43265	32349	31975
2176	0	38710	29014	41414	36056
2177	0	38457	43965	30739	39759
2178	0	43704	31446	29664	34147
2179	0	30489	29900	43540	41731
2180	0	29520	33141	41319	36165
2181	0	28699	42845	40706	42854
2182	0	32394	36121	29671	35375
2183	0	26004	25056	39341	37807
2184	0	41738	31410	43490	29494
2185	0	30762	32532	34563	26605
2186	0	42120	32340	33920	37135
2187	0	35793	44701	26399	28414
2188	0	35495	36510	35681	42615
2189	0	39562	37290	34095	31042
2190	0	43881	38991	43398	26490
2191	0	33003	41583	37056	29366
2192	0	37117	29110	39890	29687
2193	0	34460	25764	34606	39367
2194	0	29839	30278	41075	33218
2195	0	25241	37904	25120	44130
2196	0	37454	26518	36074	37352
2197	0	36374	45000	39182	32500
2198	0	31501	38148	25941	31688
2199	0	42664	37838	36722	36796
2200	0	34784	31125	36512	25139
2201	0	26275	38172	43146	34496
2202	0	30569	33755	37001	32916
2203	0	33445	25782	36683	33700
2204	0	39807	27710	39872	34164
2205	0	29743	41144	29153	38790
2206	0	28791	37941	38668	30401
2207	0	28085	26781	33134	28005
2208	0	34122	28535	27162	34667
2209	0	42359	26480	28647	41765
2210	0	37080	42976	32060	35438
2211	0	30718	39591	39978	29883
2212	0	29139	25663	28769	35539
2213	0	37314	27083	41539	32445
2214	0	28861	26320	32527	31937
2215	0	28580	27252	40470	34351
2216	0	27538	42638	43703	29084
2217	0	29405	38341	33618	28491
2218	0	41819	32840	29243	34624
2219	0	37279	44133	40747	43663
2220	0	34451	40155	26617	41461
2221	0	36437	32788	28375	40256
2222	0	29825	31152	41098	32944
2223	0	31856	36102	30191	35385
2224	0	42176	28086	41233	36356
2225	0	37501	36228	44770	30305
2226	0	33158	37995	39147	36309
2227	0	44899	30049	37483	27066
2228	0	43507	40545	25088	35044
2229	0	38452	41308	43260	27546
2230	0	42461	37422	43497	28046
2231	0	40471	38888	26523	25784
2232	0	35785	28656	29699	44689
2233	0	41386	38633	42482	37902
2234	0	34808	39838	27939	41248
2235	0	41008	39684	41834	33914
2236	0	39888	28794	25462	29264
2237	0	43068	38720	36491	39410
2238	0	43592	40816	29821	27458
2239	0	25432	27097	29177	33112
2240	0	37214	33864	25863	29504
2241	0	34737	38824	42924	25982
2242	0	30565	29560	35920	25579
2243	0	31614	38453	30014	27927
2244	0	32070	25562	38387	27081
2245	0	27608	43600	44463	32342
2246	0	37025	40712	25774	41275
2247	0	37187	33014	28973	29737
2248	0	32807	35477	25171	25204
2249	0	33030	37176	39540	44848
2250	0	32945	36321	25111	44607
2251	0	34455	25939	40857	40594
2252	0	41837	44915	40033	26908
2253	0	36405	27971	28675	26573
2254	0	34722	35318	38713	42873
2255	0	42173	28648	26603	42162
2256	0	36265	28547	34982	39858
2257	0	25308	34497	26299	43789
2258	0	39480	42594	36285	29417
2259	0	42889	32659	41041	26623
2260	0	44053	35642	30364	32502
2261	0	35556	41396	27171	44712
2262	0	28690	29153	40452	35720
2263	0	41744	28825	41559	29332
2264	0	32361	35557	25940	26964
2265	0	30350	33986	44245	43927
2266	0	41858	27300	26847	31082
2267	0	27094	25154	31704	41201
2268	0	42839	26025	31624	37305
2269	0	34859	44537	35557	25462
2270	0	42112	28238	41169	31095
2271	0	33221	31710	27362	34162
2272	0	38026	39218	26413	36607
2273	0	32634	39420	37426	37251
2274	0	28114	35637	33189	36586
2275	0	26779	36739	37042	25004
2276	0	26481	29271	29037	32437
2277	0	40016	25123	44122	39573
2278	0	36120	29187	26673	34650
2279	0	42487	37980	29767	43173
2280	0	33785	44791	41867	44368
2281	0	38686	43929	44459	36004
2282	0	44796	36469	38894	39908
2283	0	28139	28964	39126	36101
2284	0	42203	28301	31785	37328
2285	0	42510	39721	32150	32544
2286	0	29988	35801	44471	40918
2287	0	30127	36956	44211	30617
2288	0	37418	28109	33244	34504
2289	0	44769	40448	40902	36703
2290	0	42814	31832	38207	39291
2291	0	42030	31418	34347	40598
2292	0	25415	29226	44980	29288
2293	0	27348	32022	39348	26493
2294	0	41182	27148	25151	42986
2295	0	31786	32842	35453	35264
2296	0	37326	43224	42977	28726
2297	0	39726	41995	40934	26858
2298	0	26821	42994	44841	33519
2299	0	31764	27270	30108	38305
2300	0	32518	30037	25101	40747
2301	0	38722	34733	29760	35303
2302	0	33522	30461	26939	37137
2303	0	32666	30434	40824	31404
2304	0	30591	32011	44295	43779
2305	0	39756	25236	35200	42049
2306	0	29697	29651	28205	35993
2307	0	39219	27949	26855	42340
2308	0	31440	34059	42114	35427
2309	0	25077	42961	25586	25222
2310	0	27808	42824	32232	41388
2311	0	29174	36634	32631	29283
2312	0	38825	42051	33777	38935
2313	0	31681	40027	44559	27991
2314	0	33252	35817	27833	44495
2315	0	28453	35375	39459	32962
2316	0	33126	43093	40190	32614
2317	0	31112	25815	29226	28792
2318	0	39298	40021	41418	25053
2319	0	36731	28896	40904	33932
2320	0	40716	26632	30041	41843
2321	0	40135	30502	26461	42334
2322	0	43369	30761	31532	44721
2323	0	39208	33081	27155	36130
2324	0	42157	26048	29864	25966
2325	0	36445	38026	41207	32334
2326	0	41298	30014	44623	28720
2327	0	33393	42962	41511	31724
2328	0	33340	41289	39350	38099
2329	0	25191	36536	28946	40030
2330	0	26551	25236	28236	29664
2331	0	33473	41706	37586	34612
2332	0	41589	27660	34239	38794
2333	0	41566	38503	42046	28585
2334	0	37390	38183	32469	33232
2335	0	44458	31846	36744	41835
2336	0	33485	34565	26215	31522
2337	0	35459	37646	41698	33355
2338	0	33297	35661	37121	34206
2339	0	44294	25400	28834	36217
2340	0	27650	29620	35988	38681
2341	0	42481	28390	34692	29270
2342	0	25567	34998	25826	25932
2343	0	38911	39394	42130	28667
2344	0	37811	32424	34501	25161
2345	0	25172	43135	28585	36318
2346	0	35722	35105	39315	43656
2347	0	27642	32547	27937	26838
2348	0	32883	27054	40293	42788
2349	0	42998	33722	31502	30036
2350	0	42923	35920	42723	25250
2351	0	32514	41998	42469	26916
2352	0	40312	40200	25054	30308
2353	0	43191	29562	31104	39733
2354	0	42329	40411	33256	42045
2355	0	27684	32788	30031	34020
2356	0	39964	25803	28982	29366
2357	0	33355	30828	42617	27438
2358	0	37047	39166	27223	35823
2359	0	37822	39585	42193	42051
2360	0	43278	38343	31494	29951
2361	0	32758	38102	27063	27549
2362	0	30391	28905	28027	37182
2363	0	28062	31685	42782	26076
2364	0	27438	25768	36042	41379
2365	0	28502	37440	35204	30454
2366	0	26707	30316	29107	43462
2367	0	35636	27217	34474	44113
2368	0	31419	31446	44695	39853
2369	0	33954	27146	26558	44588
2370	0	29945	37105	39351	25155
2371	0	26837	28866	35376	39283
2372	0	36164	33074	28935	27397
2373	0	44781	36924	44635	41863
2374	0	36532	34032	40610	44208
2375	0	38497	43673	31101	41227
2376	0	39015	43456	41465	31542
2377	0	30494	27034	43050	44402
2378	0	33545	33129	37910	30497
2379	0	40403	31022	33616	33827
2380	0	38302	30963	25929	43144
2381	0	39435	29155	37664	44008
2382	0	38320	39624	31123	31905
2383	0	43690	37091	40323	41642
2384	0	29462	34054	42321	27326
2385	0	33462	36979	31882	41789
2386	0	40059	42411	25567	25907
2387	0	36135	31049	35584	39489
2388	0	26743	39189	36862	36343
2389	0	43532	37362	26011	40869
2390	0	39872	37469	29046	32775
2391	0	27188	31245	31127	38641
2392	0	33336	42432	41162	38412
2393	0	35831	30590	30671	30036
2394	0	29900	37056	36700	37288
2395	0	35715	39467	35643	39341
2396	0	25899	27406	30911	41233
2397	0	30319	36828	29253	40020
2398	0	32429	32595	26448	33193
2399	0	41477	35785	35229	34971
2400	0	25448	34350	31498	29234
2401	0	36898	41375	26090	42410
2402	0	38492	34284	34074	27149
2403	0	44082	40705	29710	32013
2404	0	36290	30020	35080	42963
2405	0	26384	36495	41068	34160
2406	0	28545	43547	30537	27996
2407	0	32700	26359	37339	31458
2408	0	44694	38682	43909	34663
2409	0	33624	33724	25471	29676
2410	0	34045	33607	36309	29053
2411	0	26587	36866	28046	31588
2412	0	31109	44011	44951	41458
2413	0	26737	43615	32343	36803
2414	0	31827	28964	25964	44233
2415	0	33450	35043	36660	33277
2416	0	25418	43056	41489	29866
2417	0	36080	33002	27257	29921
2418	0	28606	39702	31461	25849
2419	0	41361	30450	37478	43808
2420	0	31110	33663	34675	31663
2421	0	38173	42332	28425	44352
2422	0	42957	30336	25058	29929
2423	0	37543	37155	44548	27889
2424	0	25493	41144	28270	42249
2425	0	36400	41411	39775	39663
2426	0	43179	41231	30297	39238
2427	0	29952	38323	26309	44417
2428	0	39896	42252	40866	33952
2429	0	35087	32293	28238	39070
2430	0	33241	31280	28872	30166
2431	0	35819	30870	31134	37062
2432	0	36191	38132	35833	42794
2433	0	28577	27102	38720	29457
2434	0	27194	29014	27743	30500
2435	0	40801	38579	42310	30036
2436	0	35797	39773	37761	38318
2437	0	41119	40065	35711	41521
2438	0	37155	31282	35399	40958
2439	0	29877	29955	27769	35061
2440	0	43299	39047	43623	42282
2441	0	38664	31830	27624	41173
2442	0	33042	30937	44477	27970
2443	0	34862	37516	29086	31515
2444	0	25592	26534	33309	36006
2445	0	40658	31258	35110	25231
2446	0	42385	33646	33024	43899
2447	0	31064	29339	40918	37298
2448	0	35714	37359	30467	33835
2449	0	33692	32257	25727	30868
2450	0	43084	32263	33943	26430
2451	0	31041	42900	27971	27205
2452	0	43954	44991	40509	42045
2453	0	26886	35528	27352	25150
2454	0	30929	31046	37492	39830
2455	0	26056	25691	36801	27947
2456	0	27223	36767	32458	39049
2457	0	28627	29596	44804	26746
2458	0	33272	33421	32123	30531
2459	0	26179	30719	44299	35266
2460	0	31598	38012	39022	25997
2461	0	31881	42517	29577	37021
2462	0	39707	42272	28077	27408
2463	0	30872	26141	34274	43276
2464	0	41252	43377	38379	36037
2465	0	25525	26290	35926	43296
2466	0	43017	31027	29463	40538
2467	0	40851	29959	32047	27374
2468	0	39269	25811	43958	35744
2469	0	41166	33087	25469	32401
2470	0	27655	26112	28320	27075
2471	0	33493	38445	34294	28872
2472	0	44057	26463	39431	30245
2473	0	30469	29316	36119	39448
2474	0	44269	32239	28054	26360
2475	0	33903	25485	42323	34436
2476	0	29311	30006	26281	40902
2477	0	28203	31642	25883	30422
2478	0	29732	40157	28377	26875
2479	0	37255	32886	43474	44000
2480	0	28395	40544	31134	44710
2481	0	39626	29768	30933	35508
2482	0	39093	38839	25996	28275
2483	0	25657	39556	28892	27822
2484	0	30735	43663	33597	37916
2485	0	38572	40399	39647	25186
2486	0	41977	33807	31433	25683
2487	0	28674	43785	34886	44767
2488	0	25662	32923	34575	31337
2489	0	38903	41692	43210	42779
2490	0	25595	39750	44959	33978
2491	0	40836	39276	25202	34526
2492	0	39667	32717	34035	34396
2493	0	31667	35069	43395	43094
2494	0	28635	26237	38010	38927
2495	0	31814	42507	37036	30153
2496	0	41705	29553	27337	29374
2497	0	35770	44861	33099	39458
2498	0	37052	40718	36074	36980
2499	0	25415	35349	43519	44661
2500	0	44953	28735	44234	35512
2501	0	38830	29278	37855	42045
2502	0	39060	30878	29418	28521
2503	0	38172	29542	32676	42578
2504	0	39305	26289	37358	42739
2505	0	41004	34903	34144	34004
2506	0	35681	35844	27759	43520
2507	0	28824	41320	30502	32428
2508	0	41004	38371	43426	44980
2509	0	27748	34919	43127	30008
2510	0	44139	35385	39605	33091
2511	0	41705	37934	43086	41861
2512	0	28314	38065	28733	29496
2513	0	30062	29030	35409	26876
2514	0	32958	42154	42172	35985
2515	0	30918	33750	35561	27947
2516	0	44518	42839	40379	32714
2517	0	33083	41884	39608	29253
2518	0	38951	37367	28071	44775
2519	0	29911	37040	29681	34363
2520	0	37866	38754	35132	26606
2521	0	44787	35483	30160	34293
2522	0	44117	32943	40229	35407
2523	0	44854	43300	30183	43300
2524	0	40848	37662	37463	28584
2525	0	44915	30018	27342	33632
2526	0	35853	37094	38134	34225
2527	0	26301	39049	27163	37896
2528	0	32916	41474	25878	36478
2529	0	29376	35919	26453	32967
2530	0	29221	37336	25141	38554
2531	0	38177	34867	36607	42228
2532	0	40350	42012	43907	32134
2533	0	32962	30484	36574	38638
2534	0	39661	33404	29006	40657
2535	0	38020	37958	30689	34498
2536	0	43749	37665	42120	30184
2537	0	41034	35817	37171	34756
2538	0	35224	30129	34724	27065
2539	0	37066	31176	43746	36780
2540	0	39070	34953	31088	38604
2541	0	34064	38503	25234	43661
2542	0	30742	39978	28679	43131
2543	0	32093	44944	26715	39410
2544	0	39531	39190	37826	34478
2545	0	35938	36012	42831	35438
2546	0	26040	32849	37692	34869
2547	0	39816	33449	38241	42971
2548	0	30080	38313	37279	27536
2549	0	32658	38748	39557	38278
2550	0	38024	27126	34366	44641
2551	0	44089	35503	35906	27863
2552	0	26181	33855	26147	36073
2553	0	27010	33791	37430	40577
2554	0	29229	35996	37068	35855
2555	0	38418	39380	39003	42410
2556	0	38318	43607	34272	43740
2557	0	28198	43839	43709	31563
2558	0	35861	28079	41651	44194
2559	0	33511	38130	30840	39757
2560	0	35728	40309	42180	33587
2561	0	37754	29527	41653	30865
2562	0	41717	35468	32347	36957
2563	0	35332	33798	25966	25807
2564	0	36655	26973	29642	35723
2565	0	29840	36723	38438	26525
2566	0	29139	26333	32891	39554
2567	0	27154	29170	41921	38607
2568	0	39608	28771	42692	42261
2569	0	25968	26302	30566	29835
2570	0	37801	31947	38065	41140
2571	0	25441	41074	29618	36402
2572	0	29061	43510	42712	42611
2573	0	37351	35609	42331	43159
2574	0	26095	34140	29517	25649
2575	0	37932	26280	28173	34415
2576	0	27193	38591	41901	40047
2577	0	28525	44668	33733	34511
2578	0	34656	43812	25181	44740
2579	0	44523	33543	32337	38745
2580	0	27275	33052	36800	42285
2581	0	34550	42220	44236	43122
2582	0	41353	35541	35717	28195
2583	0	30149	40648	36947	37412
2584	0	42563	39360	43903	33586
2585	0	36545	35554	36382	27961
2586	0	30121	28574	44277	26586
2587	0	28450	28667	25384	36974
2588	0	30162	42250	26430	42640
2589	0	43966	27883	28299	31236
2590	0	39857	28699	31885	39865
2591	0	25362	41574	39820	25977
2592	0	43073	36409	26926	30420
2593	0	28360	35713	31717	44353
2594	0	43398	39166	43469	33066
2595	0	32117	40754	25229	31615
2596	0	43605	35188	27506	33017
2597	0	33035	27901	33534	44421
2598	0	42787	25584	32890	41428
2599	0	29212	26645	44937	35915
2600	0	29584	27422	29247	33647
2601	0	33116	40771	36465	31981
2602	0	38495	44999	34392	37839
2603	0	26268	26957	44442	28167
2604	0	37430	34994	40421	36019
2605	0	28758	39831	43064	32249
2606	0	30325	38155	29189	39061
2607	0	37273	26770	41352	43005
2608	0	41877	32377	28346	37154
2609	0	33217	42710	25847	29978
2610	0	26638	43137	36937	40857
2611	0	37841	31365	43878	43117
2612	0	43264	39094	29441	28140
2613	0	40645	27677	28036	34968
2614	0	39588	31803	25738	40383
2615	0	25890	27592	43084	25137
2616	0	43171	33104	25547	35264
2617	0	42754	42443	38802	36183
2618	0	41040	25622	26484	34589
2619	0	30488	29272	41472	26300
2620	0	26073	31532	41838	39653
2621	0	31417	35548	25656	39907
2622	0	38623	37640	33743	39265
2623	0	29109	38909	36007	34001
2624	0	26097	30433	34820	32156
2625	0	40583	37950	26178	39223
2626	0	32779	27015	29546	32964
2627	0	25487	30061	44531	29462
2628	0	35140	33702	43531	27884
2629	0	33514	43202	38854	34341
2630	0	28369	36957	30362	38870
2631	0	31270	33468	41282	31055
2632	0	25144	33872	30768	38932
2633	0	31565	38230	33664	26784
2634	0	40285	40705	28733	26328
2635	0	31444	39196	26180	25727
2636	0	25742	25062	33926	41108
2637	0	43213	29141	41676	28298
2638	0	28305	44884	25735	37440
2639	0	32056	29914	27682	30689
2640	0	36633	31961	28952	37876
2641	0	37389	28702	40933	39246
2642	0	33062	33207	43488	31317
2643	0	32149	36781	29551	29795
2644	0	41587	37105	27253	39517
2645	0	30727	37180	33269	38210
2646	0	42274	36739	31093	30666
2647	0	29228	40988	26440	34773
2648	0	33234	33503	40698	35192
2649	0	26416	25929	27897	44343
2650	0	43788	39307	30571	27127
2651	0	44667	42896	35766	25561
2652	0	40568	37939	25283	31071
2653	0	29846	44021	28374	43105
2654	0	41703	28290	25566	35827
2655	0	38069	26248	25361	36690
2656	0	38257	39696	28342	28899
2657	0	26391	32597	44888	31548
2658	0	28735	36619	31969	30821
2659	0	32846	32723	39869	39842
2660	0	33431	43592	26074	30073
2661	0	28765	29698	37156	42892
2662	0	33373	28510	35192	32919
2663	0	41233	39315	34892	38149
2664	0	43571	26938	27019	44847
2665	0	32254	37869	37117	40470
2666	0	41810	30352	35419	37529
2667	0	27919	39434	28172	41756
2668	0	31417	26712	34580	37257
2669	0	44872	36225	40566	33507
2670	0	30833	31269	26977	32659
2671	0	42603	34307	38119	28980
2672	0	35029	29801	31025	38144
2673	0	27484	40192	38971	32230
2674	0	34539	41327	30593	25337
2675	0	28717	34365	36083	37015
2676	0	30027	39535	28937	29412
2677	0	36724	29821	32779	42983
2678	0	32675	28833	38835	43207
2679	0	33797	38413	38447	31774
2680	0	26486	36182	29998	31932
2681	0	27706	34582	38127	26047
2682	0	32239	29146	39392	26901
2683	0	40829	39852	44267	29664
2684	0	26588	38985	34699	41391
2685	0	37853	44341	26387	36785
2686	0	42208	44894	31741	26943
2687	0	29680	30296	31882	38885
2688	0	34833	44413	30691	33367
2689	0	43097	34934	39873	30791
2690	0	37415	44809	31456	26078
2691	0	31444	44421	43975	43799
2692	0	33505	35675	31766	39906
2693	0	32822	30863	42634	40266
2694	0	42983	41459	34731	29670
2695	0	26833	28049	44083	26638
2696	0	38899	43432	29485	40513
2697	0	28190	25246	40589	35655
2698	0	25599	30067	37438	42597
2699	0	29285	37161	38050	32958
2700	0	37776	32062	37769	29242
2701	0	35988	43837	28271	33790
2702	0	27851	38831	35225	39279
2703	0	43967	26870	40652	40094
2704	0	33555	39648	36499	37004
2705	0	25007	44677	33917	28571
2706	0	43219	25220	27591	30030
2707	0	36252	30438	33931	36362
2708	0	33217	37389	41484	32873
2709	0	30501	43928	38781	31990
2710	0	29020	25176	39200	41458
2711	0	33963	30438	31833	34663
2712	0	32188	36475	44636	29781
2713	0	44002	44761	28753	40532
2714	0	25630	37828	44477	33272
2715	0	41197	39311	38613	33936
2716	0	40333	38738	40565	35327
2717	0	31967	32152	39786	27806
2718	0	26585	36112	30109	41989
2719	0	42851	27065	43338	35982
2720	0	39240	35305	29950	37424
2721	0	39745	40447	41596	33980
2722	0	43655	27008	32543	33878
2723	0	33438	28816	37019	26205
2724	0	39454	28813	33362	33671
2725	0	41511	25764	25126	44569
2726	0	25320	26839	27420	26858
2727	0	27351	44654	38665	41461
2728	0	33603	40622	36676	39828
2729	0	28265	42288	27464	35466
2730	0	28544	27833	29746	41246
2731	0	40624	38438	41799	42408
2732	0	43215	42839	32229	40163
2733	0	39250	43946	32728	34817
2734	0	44713	40850	42062	38715
2735	0	39658	44234	37741	36569
2736	0	28629	33921	41149	35052
2737	0	27619	41614	44096	28436
2738	0	42281	41022	31978	31790
2739	0	25609	36418	42564	32829
2740	0	39250	32589	29600	43772
2741	0	35132	35129	43908	31802
2742	0	26098	30875	26155	26428
2743	0	34194	27434	27440	30258
2744	0	40784	44867	34248	28091
2745	0	37353	39995	43066	29262
2746	0	36480	41020	25274	32693
2747	0	33764	40452	40167	35922
2748	0	36571	35293	26780	36325
2749	0	33748	29346	27874	40892
2750	0	26963	44410	32204	26895
2751	0	32950	28536	28850	43245
2752	0	40973	38579	31553	43354
2753	0	29829	26276	41131	43279
2754	0	39666	29187	30826	34334
2755	0	26937	28071	25969	27627
2756	0	44176	26152	37021	29566
2757	0	35703	25055	30961	26861
2758	0	43022	27950	29999	38915
2759	0	41565	27202	44492	35474
2760	0	30392	41962	39498	27675
2761	0	27672	26110	41049	26395
2762	0	39955	33465	34664	41864
2763	0	30418	43474	34772	36829
2764	0	29499	26629	32872	37967
2765	0	39441	27933	40710	31430
2766	0	26890	34694	34102	37014
2767	0	28804	36496	27661	27868
2768	0	41825	29357	34005	34159
2769	0	28626	41733	37794	39643
2770	0	25788	31092	41751	33921
2771	0	28733	28348	31892	39294
2772	0	36717	32861	42877	31424
2773	0	28626	26532	38762	32848
2774	0	28925	44993	42979	43300
2775	0	32031	25732	44018	42622
2776	0	31098	43312	39041	31044
2777	0	37110	26518	26109	26097
2778	0	25278	41076	37156	35683
2779	0	38257	35939	30798	27985
2780	0	31469	34711	34785	28940
2781	0	35344	25861	39340	26370
2782	0	30661	42610	35630	37939
2783	0	38979	28983	41927	32775
2784	0	38087	28550	30124	37522
2785	0	44802	31218	42832	37817
2786	0	44598	42036	31449	33263
2787	0	35620	29779	44916	42828
2788	0	44997	43345	42049	30882
2789	0	42321	28364	31350	26284
2790	0	28106	36798	26464	36104
2791	0	44376	32211	25425	42339
2792	0	42295	44088	35342	29987
2793	0	36310	40788	41748	35248
2794	0	25492	43874	37460	28099
2795	0	28423	40135	38546	37462
2796	0	32603	43693	44255	25402
2797	0	27253	41000	26393	32612
2798	0	28511	35276	37191	36903
2799	0	37705	33483	32496	42776
2800	0	29340	39232	41904	30340
2801	0	28139	33636	37210	40078
2802	0	32406	31288	42339	43345
2803	0	29228	44985	28617	34555
2804	0	42616	41433	44095	44487
2805	0	34031	25841	29362	34680
2806	0	28971	30215	38893	32928
2807	0	30154	40332	27843	38360
2808	0	36360	32318	29249	38618
2809	0	25468	30090	38915	42324
2810	0	30692	39201	40822	44353
2811	0	25178	41769	35036	44102
2812	0	26784	30024	30932	30720
2813	0	40921	38619	27454	40195
2814	0	34973	41843	28313	27781
2815	0	43834	37324	43532	27849
2816	0	28089	42620	44826	41394
2817	0	28266	34744	30885	32850
2818	0	36230	36110	25477	30615
2819	0	36357	26162	26103	39506
2820	0	29414	28439	31458	40976
2821	0	27539	26884	36868	39809
2822	0	32888	36472	41453	25286
2823	0	44775	28205	35767	30453
2824	0	30275	33467	42084	34665
2825	0	29799	36079	25063	32252
2826	0	29968	25230	28873	44777
2827	0	32382	39400	35935	27170
2828	0	28274	37033	29778	36421
2829	0	34246	32620	41729	39829
2830	0	34283	33006	35119	30498
2831	0	26630	40355	34416	39067
2832	0	35353	40614	25644	34547
2833	0	43575	30604	40692	32486
2834	0	25159	41561	35692	32396
2835	0	38919	36468	39265	31361
2836	0	31253	33872	43857	43294
2837	0	27921	25295	27783	27719
2838	0	42777	38397	41092	28558
2839	0	35826	30194	30017	44399
2840	0	44349	34411	29041	38613
2841	0	27619	43464	35898	30009
2842	0	32427	40823	34509	34830
2843	0	37764	37033	32664	31045
2844	0	44182	40925	40020	38792
2845	0	32171	40749	33350	30294
2846	0	42676	37091	25119	32774
2847	0	29938	41994	30336	31359
2848	0	35258	43017	31876	38400
2849	0	27142	38871	34809	32778
2850	0	38839	34246	32434	29415
2851	0	30900	31385	33685	30977
2852	0	35642	40812	44607	28804
2853	0	30282	32239	25867	26801
2854	0	26088	34861	35276	41535
2855	0	25717	31713	40709	32221
2856	0	39029	25792	43091	38400
2857	0	25612	34336	39856	37050
2858	0	33812	37768	30405	38111
2859	0	33254	42580	41589	29060
2860	0	40769	25657	27093	25729
2861	0	25661	25164	36992	29241
2862	0	44189	27156	44117	36254
2863	0	28398	34309	29088	27649
2864	0	43181	29371	27692	38170
2865	0	39501	40923	26098	44162
2866	0	36836	38050	36996	43531
2867	0	27355	35933	43122	37811
2868	0	38268	32697	25656	38183
2869	0	41343	25874	29116	26786
2870	0	44602	39862	36580	41903
2871	0	29747	28768	36079	25944
2872	0	41709	27188	28299	35097
2873	0	41401	39027	43487	40520
2874	0	26877	30530	34346	42528
2875	0	31457	26381	30569	29088
2876	0	41031	38404	41424	26254
2877	0	43419	29220	36808	44438
2878	0	42708	42512	43088	32430
2879	0	27635	44976	34657	37498
2880	0	28849	43488	36191	34998
2881	0	34575	43932	28355	27227
2882	0	39254	37616	40676	26158
2883	0	33429	41446	41683	30211
2884	0	32389	44298	43019	31967
2885	0	27417	40845	34233	27288
2886	0	32679	36464	27584	30512
2887	0	40586	38264	33176	29384
2888	0	30371	33990	39372	27476
2889	0	31069	30019	30480	26521
2890	0	33777	44608	33669	37779
2891	0	38574	34160	38257	41892
2892	0	42510	26395	44081	29089
2893	0	39415	38170	39498	31904
2894	0	35049	38410	30116	29426
2895	0	30089	37518	30150	44323
2896	0	25876	27102	32112	43170
2897	0	38938	27048	31069	27888
2898	0	28882	39273	41015	26400
2899	0	26209	36253	27773	34260
2900	0	39007	34398	32641	43703
2901	0	39937	31937	43010	32908
2902	0	44846	40529	43683	26917
2903	0	26748	42088	33272	30464
2904	0	39609	35643	40892	43930
2905	0	25285	38387	34190	27471
2906	0	34077	30047	37570	43604
2907	0	38567	34097	36676	29748
2908	0	28900	37690	41261	32424
2909	0	27161	34718	42865	28078
2910	0	41889	33381	25668	35082
2911	0	42773	37423	36290	26343
2912	0	39528	31756	40344	43116
2913	0	27896	29011	29110	40068
2914	0	31914	29982	41592	43694
2915	0	42752	38297	33040	29404
2916	0	36864	32820	26809	44097
2917	0	36980	42479	25398	43757
2918	0	42936	36493	31739	27716
2919	0	44195	43036	35559	31361
2920	0	30686	42232	30687	35390
2921	0	30264	33467	30196	38068
2922	0	37987	27188	39889	26675
2923	0	42457	44091	29423	35893
2924	0	26281	31367	28249	36681
2925	0	25833	43321	42922	31986
2926	0	26496	41070	33702	33259
2927	0	33562	36018	43857	42067
2928	0	36985	25934	27769	42050
2929	0	37896	36476	28586	38042
2930	0	34505	37700	29699	29456
2931	0	31205	36064	35550	41458
2932	0	32259	26704	27189	38652
2933	0	32055	41163	27844	28186
2934	0	34831	44648	41568	39659
2935	0	28043	29800	34596	27691
2936	0	29776	37659	29505	33002
2937	0	39880	36261	31388	26022
2938	0	40339	26123	34416	44595
2939	0	28007	43323	33546	39851
2940	0	25964	26266	38119	30300
2941	0	44452	40771	31089	30569
2942	0	27217	44972	37769	30803
2943	0	43911	28147	41360	36614
2944	0	34646	26241	43341	25903
2945	0	38221	41810	26719	35926
2946	0	34000	36821	36659	30112
2947	0	43441	28094	25276	38028
2948	0	27328	42382	37037	28790
2949	0	36839	28389	32630	33761
2950	0	28054	28291	40011	26589
2951	0	38200	41908	38426	29466
2952	0	44939	26411	29818	41417
2953	0	38128	25552	40359	30327
2954	0	30082	29127	35295	42111
2955	0	25520	41044	43450	28474
2956	0	42820	29204	43118	43506
2957	0	36409	35291	38188	40544
2958	0	40462	42287	27894	31664
2959	0	28537	29318	43420	27166
2960	0	41719	28264	31627	29035
2961	0	30985	43060	40304	32932
2962	0	34447	39125	35409	41179
2963	0	32555	44681	25892	25566
2964	0	25787	40458	38277	26182
2965	0	26723	39527	44694	37973
2966	0	25813	26388	34860	30454
2967	0	31030	44118	44190	30897
2968	0	33562	40854	26758	43411
2969	0	36923	34440	31833	44848
2970	0	38698	32244	38065	30003
2971	0	41497	41995	28893	29590
2972	0	43152	26872	38443	30128
2973	0	25996	26012	27973	28055
2974	0	28992	28106	41491	35677
2975	0	35793	35775	32599	39206
2976	0	33198	44488	37414	44134
2977	0	28151	28275	33402	36352
2978	0	33100	43677	40868	28477
2979	0	30685	29896	43894	39849
2980	0	27649	35966	26982	41553
2981	0	42108	28280	35546	26288
2982	0	29925	35123	28962	43575
2983	0	32238	38212	36201	38166
2984	0	38973	28387	35499	34565
2985	0	39122	43896	36124	29635
2986	0	42060	26759	44231	31452
2987	0	28947	34953	41875	29083
2988	0	32723	25815	30415	26543
2989	0	38661	37658	40140	40219
2990	0	40494	44479	37340	41606
2991	0	37819	30690	41113	43290
2992	0	32201	33635	27025	39194
2993	0	32392	44386	43395	41931
2994	0	44555	29218	37632	43092
2995	0	27279	39602	42411	40518
2996	0	29260	37326	37745	25448
2997	0	39871	41493	29624	42890
2998	0	35864	33894	40221	39031
2999	0	38717	25763	28510	25826
3000	0	32360	31901	31651	43246
3001	0	34918	37917	36957	44494
3002	0	32488	44495	40940	37578
3003	0	34174	37391	30886	40736
3004	0	33765	40355	31534	37778
3005	0	44539	25905	28526	28602
3006	0	26738	29714	32131	44294
3007	0	29171	28052	27449	42723
3008	0	29239	29197	39463	36582
3009	0	38866	42216	25408	28752
3010	0	42131	44447	32461	32196
3011	0	41920	37626	25274	33208
3012	0	43259	37611	30599	32617
3013	0	39599	43051	25172	38350
3014	0	40210	44636	29832	37683
3015	0	43783	32754	27442	44364
3016	0	30614	37088	39618	28846
3017	0	29530	42328	33222	38663
3018	0	40588	35622	41049	42267
3019	0	27294	26739	29571	29529
3020	0	25944	31877	38531	38890
3021	0	26517	38719	43883	37743
3022	0	38312	42338	44976	29236
3023	0	25668	26977	40926	30942
3024	0	33215	32928	44937	33612
3025	0	39631	35365	25142	41239
3026	0	38615	28455	38921	42208
3027	0	38584	25075	43334	29255
3028	0	34425	44497	28752	31171
3029	0	28194	25049	38903	25346
3030	0	35211	33586	26127	31042
3031	0	34691	34749	37117	33295
3032	0	32223	36905	35820	27522
3033	0	27207	29269	35028	34902
3034	0	26081	36733	38561	26965
3035	0	30291	37192	26715	41778
3036	0	29029	29509	37832	37257
3037	0	43121	30297	30542	27967
3038	0	34818	34125	29987	33979
3039	0	33276	31507	26431	42700
3040	0	37711	42592	31784	35131
3041	0	31832	29622	28385	31309
3042	0	39756	32925	26606	27591
3043	0	43007	32901	26400	36977
3044	0	35282	42071	26913	36417
3045	0	28942	39384	40946	30607
3046	0	29149	41844	28842	38986
3047	0	29680	36458	25967	32343
3048	0	26787	38812	34506	28180
3049	0	32765	30743	27390	34840
3050	0	33302	29256	44364	33958
3051	0	28754	43547	31172	26611
3052	0	32726	43382	35518	43021
3053	0	25537	28334	31016	30987
3054	0	42078	26366	26072	31300
3055	0	31725	39384	33490	33144
3056	0	26461	34492	28285	43135
3057	0	36735	25397	42445	41003
3058	0	30791	34824	25663	29874
3059	0	42028	31747	41218	37918
3060	0	30160	33770	35226	29107
3061	0	32882	40927	29824	36032
3062	0	33813	44682	38219	27574
3063	0	39887	27799	30334	43367
3064	0	25046	26103	29147	29872
3065	0	37600	31642	32732	25190
3066	0	37409	29653	38394	36476
3067	0	43794	31054	41504	44740
3068	0	37636	28911	33895	32963
3069	0	38923	41880	35076	37299
3070	0	26250	39961	37797	31066
3071	0	32905	26120	38953	27283
3072	0	31620	35740	41189	34631
3073	0	44863	34426	30918	35490
3074	0	32135	40675	32083	28689
3075	0	41827	31665	41792	32719
3076	0	29713	27621	29040	27943
3077	0	28177	37169	39645	28364
3078	0	25387	38922	35682	43626
3079	0	39556	44983	41163	34396
3080	0	26358	26791	33444	42881
3081	0	40648	27204	34653	35585
3082	0	41585	36143	36236	37198
3083	0	36051	43432	38213	43295
3084	0	25347	42872	35365	41665
3085	0	34518	30025	38345	42211
3086	0	44670	34928	42140	25173
3087	0	29161	31835	33503	36524
3088	0	41301	41121	31558	31558
3089	0	29806	40293	37823	34572
3090	0	25688	31153	26681	39229
3091	0	40083	40204	34901	34854
3092	0	38167	42182	42274	40222
3093	0	29813	33849	30667	32541
3094	0	43246	39559	28371	44187
3095	0	27761	30651	43822	39676
3096	0	27481	31712	32221	41406
3097	0	33302	43036	42749	41182
3098	0	43967	39715	26350	39575
3099	0	28629	30432	37834	32124
3100	0	33967	36342	36281	26021
3101	0	34759	30742	43032	42125
3102	0	27999	32619	30211	25410
3103	0	35212	35933	37456	37478
3104	0	28503	30294	28408	32685
3105	0	44982	32035	43778	31370
3106	0	30689	41348	37409	37170
3107	0	33415	34951	37662	35700
3108	0	37423	35150	32037	30641
3109	0	38370	41153	33799	36895
3110	0	29444	28514	41766	36015
3111	0	37766	39777	31728	40873
3112	0	33276	25172	38441	30302
3113	0	36152	31060	41506	40005
3114	0	29720	40872	41711	32981
3115	0	30366	35371	28966	37801
3116	0	42961	42855	33528	38213
3117	0	29668	40638	44584	38944
3118	0	36704	43444	32186	26336
3119	0	27715	31636	26907	34923
3120	0	27246	39446	37231	35164
3121	0	42902	41645	26428	36656
3122	0	35717	29858	28921	32917
3123	0	43271	38042	42057	43699
3124	0	26455	40341	35338	41740
3125	0	27392	25148	28857	25838
3126	0	26541	31363	44228	36085
3127	0	28954	34047	40732	36570
3128	0	26852	36002	32385	39949
3129	0	37099	30614	31828	38789
3130	0	34759	26066	28140	38055
3131	0	25702	34142	38373	31947
3132	0	38525	33260	34878	40412
3133	0	28552	36205	36099	34612
3134	0	29109	29773	41381	29368
3135	0	26435	34388	43798	25993
3136	0	33267	25164	32506	28847
3137	0	34679	33824	39129	36479
3138	0	28815	26239	34533	27158
3139	0	33941	38846	38092	28415
3140	0	37252	35784	39100	41471
3141	0	40517	25318	29299	42726
3142	0	42734	38328	43018	41927
3143	0	27788	43235	44119	37965
3144	0	36697	30195	25671	40154
3145	0	37983	43078	33265	32045
3146	0	35315	37195	33341	30836
3147	0	39785	32837	27158	36024
3148	0	30522	31795	36509	32671
3149	0	32354	35589	35873	42650
3150	0	38320	34804	40074	28592
3151	0	28760	42939	36403	27576
3152	0	39125	31448	44440	40064
3153	0	32429	39634	44950	35279
3154	0	35829	40933	43012	35432
3155	0	42997	33332	25159	30276
3156	0	36620	26339	44260	43873
3157	0	36917	33538	27917	39107
3158	0	44616	44983	31554	37289
3159	0	38630	32113	43795	27787
3160	0	32869	31868	26377	36403
3161	0	38754	32094	28253	37445
3162	0	43804	27574	28827	43770
3163	0	38193	44008	42583	41882
3164	0	36364	38929	25430	30757
3165	0	28784	28575	40899	25902
3166	0	25411	42243	35807	37504
3167	0	27383	41453	29658	30303
3168	0	34841	26954	38567	25538
3169	0	37864	34014	27479	28292
3170	0	40844	26233	25240	33869
3171	0	38404	35013	35780	40043
3172	0	25815	40107	29424	29778
3173	0	36467	26870	31059	32352
3174	0	32734	32057	42714	27962
3175	0	29442	37010	27158	43276
3176	0	36474	37915	37673	32690
3177	0	43204	32598	33648	38322
3178	0	37065	43088	38431	26359
3179	0	31235	42042	34545	42196
3180	0	35263	31152	42797	42266
3181	0	29095	35010	35579	30774
3182	0	40898	41938	33212	41885
3183	0	26865	26055	34677	26896
3184	0	36663	35565	34732	34100
3185	0	43599	43388	43991	37046
3186	0	38528	26020	43991	31225
3187	0	27162	38002	29667	42008
3188	0	26146	44098	34459	26716
3189	0	40664	33812	28647	26734
3190	0	33661	30660	26956	26632
3191	0	30342	34648	40004	36249
3192	0	33109	28394	32096	25334
3193	0	31935	34459	36395	27355
3194	0	33626	27240	39903	29241
3195	0	37670	32079	28558	34362
3196	0	28259	28381	42767	40718
3197	0	41826	34238	40350	32588
3198	0	30451	31239	40837	34554
3199	0	37006	37851	40118	41042
3200	0	41269	29798	26086	42603
3201	0	34322	34895	44105	25188
3202	0	32869	41655	43765	29644
3203	0	39731	43268	28198	26242
3204	0	42037	31235	37767	34383
3205	0	43125	42078	34097	29099
3206	0	28704	43257	40157	35639
3207	0	37566	30346	38692	27955
3208	0	40552	42009	32495	32377
3209	0	30622	41895	40167	29507
3210	0	32768	28454	30260	28162
3211	0	37501	37258	34846	40570
3212	0	35700	35394	34418	29842
3213	0	30858	30311	31780	31128
3214	0	33654	39647	39786	43281
3215	0	40139	35095	36614	34983
3216	0	37257	38577	39567	40618
3217	0	38955	27509	37776	37110
3218	0	33658	42458	39492	31164
3219	0	35359	32376	28501	25877
3220	0	39180	34743	36757	34926
3221	0	30200	43588	30415	41147
3222	0	31239	39128	43404	31043
3223	0	27238	30458	33263	41642
3224	0	42081	36205	43682	38023
3225	0	34696	26106	36336	42230
3226	0	36478	28725	25932	35925
3227	0	44680	28464	25218	29835
3228	0	40871	43135	44910	26650
3229	0	38938	26521	30792	35617
3230	0	41243	29879	34856	28088
3231	0	41010	39053	34898	34945
3232	0	42846	38673	43485	42952
3233	0	40575	29131	40754	32039
3234	0	25995	29206	29174	30831
3235	0	36253	41060	38489	43527
3236	0	40486	41224	31132	26344
3237	0	27441	26418	32524	27791
3238	0	37282	30311	28705	28104
3239	0	30710	28061	29666	37468
3240	0	43633	27924	42481	41055
3241	0	39722	30360	38813	39693
3242	0	28856	42070	30620	31459
3243	0	38717	44303	28739	36580
3244	0	35328	39131	38079	32009
3245	0	37793	39896	29821	43340
3246	0	41602	34561	25795	37367
3247	0	28650	27989	26639	36143
3248	0	28054	43935	39743	34265
3249	0	33672	41780	28039	41403
3250	0	33679	35660	25587	29124
3251	0	42858	40511	33876	44111
3252	0	42898	42520	40066	30592
3253	0	35792	41579	38675	25589
3254	0	43078	25957	40701	44946
3255	0	41520	27237	26604	42563
3256	0	25729	36080	33255	31938
3257	0	30210	25016	34830	27364
3258	0	32102	37854	28584	33687
3259	0	32694	33844	42650	28761
3260	0	42752	30296	35080	26296
3261	0	31773	44559	39446	34562
3262	0	33543	35147	44473	40007
3263	0	27683	33806	31243	38954
3264	0	42402	43760	40916	40588
3265	0	42932	28355	33118	35085
3266	0	26953	39547	31852	38026
3267	0	34158	41081	36566	43597
3268	0	39886	28514	29845	30655
3269	0	26603	43313	33693	41791
3270	0	43086	44809	34436	40020
3271	0	40613	37979	39997	25762
3272	0	34896	30090	26736	28011
3273	0	28701	37959	43788	31332
3274	0	26765	25517	34141	31225
3275	0	27959	33216	25735	43708
3276	0	28911	28113	26377	26246
3277	0	41884	39752	34378	34687
3278	0	37763	29507	25975	29656
3279	0	43435	31981	28456	26927
3280	0	26313	36183	40643	27207
3281	0	31439	44419	38418	34701
3282	0	32297	29964	42549	36711
3283	0	30630	34955	35307	44238
3284	0	27939	32323	38361	32101
3285	0	30432	31416	25464	42086
3286	0	26574	27279	28556	26314
3287	0	27244	35888	41957	43789
3288	0	26346	29405	28727	25175
3289	0	28762	30545	44140	34906
3290	0	34916	31804	36001	40832
3291	0	30826	39325	33364	38283
3292	0	43385	43159	29820	31404
3293	0	27421	41088	37377	41077
3294	0	29131	26310	30894	33003
3295	0	37210	32855	38393	37503
3296	0	26755	36754	25518	44742
3297	0	43862	32154	39719	40420
3298	0	35664	43005	31462	43776
3299	0	34054	38322	40029	37900
3300	0	44213	34636	27713	39655
3301	0	33325	27314	34141	34555
3302	0	36303	38214	28079	43060
3303	0	26118	29978	28781	36141
3304	0	37763	35604	38679	39273
3305	0	37571	31127	35340	42249
3306	0	27985	28660	43102	35736
3307	0	39087	42287	31710	30458
3308	0	29017	40392	26784	40248
3309	0	33898	31235	27528	30896
3310	0	30737	34539	41582	27425
3311	0	37670	33740	44907	37402
3312	0	41498	39666	31136	31863
3313	0	35193	35870	35897	39109
3314	0	25992	36694	40902	28364
3315	0	25692	44624	32822	33479
3316	0	28424	36887	31761	40031
3317	0	30353	29676	41799	43333
3318	0	29145	37912	26727	33195
3319	0	32496	36981	39333	39622
3320	0	36864	38478	34415	42475
3321	0	36150	37172	38722	31898
3322	0	39979	34118	30243	33739
3323	0	41382	35396	36339	25748
3324	0	29063	25036	27548	32599
3325	0	32210	34043	41031	31824
3326	0	35189	29011	31216	36981
3327	0	36382	42292	36278	35999
3328	0	31169	38880	39369	28678
3329	0	30868	44550	42260	27681
3330	0	43518	25479	34643	37304
3331	0	40600	36137	41000	29201
3332	0	39862	29481	36059	33718
3333	0	38734	44968	31214	41032
3334	0	32483	28835	32930	32239
3335	0	34415	31872	37196	36808
3336	0	40637	36272	33870	44956
3337	0	27888	38451	33223	28994
3338	0	25036	43089	36864	29040
3339	0	37455	40478	41782	36829
3340	0	34306	26270	34784	26559
3341	0	28270	31552	38184	44668
3342	0	26738	40513	27550	43226
3343	0	33239	38791	40405	38198
3344	0	33820	31467	34794	40314
3345	0	44419	41558	43147	43151
3346	0	26382	25943	43808	40795
3347	0	41595	38157	29484	43290
3348	0	26559	37436	31874	35210
3349	0	43998	40170	31286	36762
3350	0	43666	33866	30084	33235
3351	0	32226	44680	30078	38931
3352	0	26604	33412	34504	29401
3353	0	36928	40107	32202	27856
3354	0	33762	28881	31935	37743
3355	0	38806	28197	37464	32217
3356	0	28850	29075	37846	39512
3357	0	29680	39889	38528	30662
3358	0	25394	38810	30079	35813
3359	0	36444	35398	42102	38831
3360	0	40030	40861	39813	30776
3361	0	28268	39354	27765	34422
3362	0	27835	26028	34602	31505
3363	0	44980	40935	25811	39523
3364	0	43050	34316	43541	43920
3365	0	39741	41383	44943	37119
3366	0	34584	43627	35151	40963
3367	0	43159	27876	35138	30652
3368	0	30840	31080	25467	35400
3369	0	44974	42038	39584	39252
3370	0	29457	42040	25215	38060
3371	0	29690	39921	28507	32794
3372	0	44701	43743	41892	27763
3373	0	31505	29924	28888	37040
3374	0	41325	31775	28753	43803
3375	0	26689	32417	37738	33178
3376	0	33661	43345	40325	44287
3377	0	28382	30952	41571	43996
3378	0	28391	39393	35430	26673
3379	0	33908	34270	31746	38573
3380	0	29306	44758	41670	34877
3381	0	37744	32050	27291	31353
3382	0	33766	44613	44034	31707
3383	0	30283	30066	35331	26275
3384	0	30817	39553	25208	35656
3385	0	35739	28059	35465	28974
3386	0	41373	29049	44855	43366
3387	0	42119	38428	44831	29483
3388	0	31076	41596	26288	26144
3389	0	33678	40925	30999	34090
3390	0	40298	33634	33970	27987
3391	0	43325	29442	43481	31908
3392	0	32748	34865	31182	29207
3393	0	31749	33265	42423	43324
3394	0	44677	40952	42595	40353
3395	0	26136	40132	28919	32762
3396	0	40818	32246	31011	25076
3397	0	26074	26638	41067	26451
3398	0	39153	28640	26830	33624
3399	0	43051	38338	31864	34662
3400	0	34334	25144	41417	35110
3401	0	36713	31692	39575	44633
3402	0	26361	42969	41985	36115
3403	0	33374	29141	29251	44898
3404	0	40934	29419	28979	34317
3405	0	27430	43717	34219	39260
3406	0	41703	34072	43640	33155
3407	0	34269	26836	44905	34936
3408	0	34006	29311	36894	34453
3409	0	25939	42864	43752	35703
3410	0	29510	36101	26037	31757
3411	0	25620	34215	35512	32300
3412	0	41017	28667	39362	25365
3413	0	28371	38925	25660	37646
3414	0	34275	30757	36145	40258
3415	0	42106	32773	33033	39606
3416	0	38536	37412	35001	36239
3417	0	33626	25603	35057	25416
3418	0	39021	30044	29987	34955
3419	0	33623	37660	36286	44109
3420	0	40546	28679	33944	29393
3421	0	26538	37536	32437	44469
3422	0	38859	31613	28254	38176
3423	0	37846	37770	35489	34498
3424	0	32035	30121	41944	42818
3425	0	42145	26877	43748	29937
3426	0	35503	44778	43924	40985
3427	0	30936	43790	28369	44179
3428	0	42718	43154	44557	39268
3429	0	29849	30217	27396	34231
3430	0	41459	36276	27294	29857
3431	0	33053	42078	39353	43425
3432	0	31769	35779	25143	30002
3433	0	43436	27163	39502	37085
3434	0	36354	38161	37325	30051
3435	0	39169	35157	44681	38363
3436	0	36308	44606	30835	30613
3437	0	27828	38888	42964	34402
3438	0	44138	33591	34812	34007
3439	0	39366	35233	31037	42219
3440	0	26294	33597	36203	38115
3441	0	42169	27301	32680	31287
3442	0	29646	42623	30489	28149
3443	0	42057	33536	44763	27219
3444	0	33671	29876	44380	43219
3445	0	32503	44151	27981	44590
3446	0	41036	34295	40218	35767
3447	0	26572	25148	34831	26247
3448	0	39867	36270	44508	31843
3449	0	38595	33366	43300	27632
3450	0	37832	40363	38906	39333
3451	0	26033	27351	25926	43696
3452	0	44262	28085	43262	39401
3453	0	40330	29737	37761	30616
3454	0	39486	42573	44991	25635
3455	0	33681	43777	44509	28547
3456	0	35739	35975	31450	40926
3457	0	25749	31890	39695	40511
3458	0	44830	44628	27886	38968
3459	0	41149	36490	26980	27538
3460	0	43203	40614	44482	38555
3461	0	43304	36605	37034	44172
3462	0	26189	28339	29108	36550
3463	0	40208	25309	36669	40736
3464	0	34953	38526	40212	34069
3465	0	41935	44756	31540	36866
3466	0	25931	37557	39822	43283
3467	0	33041	44740	28399	43394
3468	0	43981	26133	38714	42830
3469	0	25766	38103	44871	36897
3470	0	42153	36114	43284	31905
3471	0	25114	32391	31029	27579
3472	0	43339	33107	30585	44864
3473	0	42234	39189	36038	32038
3474	0	31420	39856	27069	25836
3475	0	27733	30587	44326	38065
3476	0	31251	43251	34074	25530
3477	0	26960	38565	37040	26028
3478	0	44923	35590	43838	30474
3479	0	35781	30943	43841	28689
3480	0	32919	35975	26198	42735
3481	0	26844	28513	44346	39046
3482	0	44497	34872	39262	40538
3483	0	29689	37944	30488	26229
3484	0	36012	39056	43030	32365
3485	0	31770	31463	31675	29767
3486	0	30082	40477	28629	27891
3487	0	35917	31962	41959	36471
3488	0	30024	37824	37658	26899
3489	0	38438	43637	33487	32396
3490	0	41227	35080	37061	42621
3491	0	36414	32307	36536	28229
3492	0	25751	42575	28918	32208
3493	0	30433	41956	26121	33006
3494	0	44683	41203	26788	29658
3495	0	29764	37322	38582	31980
3496	0	29106	32382	29610	32194
3497	0	37024	29091	26663	37906
3498	0	34193	28845	36990	35901
3499	0	28995	25134	41056	31392
3500	0	26482	31597	39152	33671
3501	0	33469	35048	44007	25892
3502	0	38548	36800	34757	42621
3503	0	29898	41051	35056	40016
3504	0	39792	27165	26315	36711
3505	0	40477	35548	28364	42503
3506	0	32697	33729	34981	35144
3507	0	36621	34920	41422	26545
3508	0	40661	42196	42688	38252
3509	0	32933	40339	41677	37869
3510	0	28170	33503	29445	38524
3511	0	40611	36027	44061	29893
3512	0	42403	35658	31874	29326
3513	0	27696	35915	38352	31343
3514	0	36765	26343	34070	25399
3515	0	34353	38367	38495	25702
3516	0	40782	31248	31290	34611
3517	0	31434	30119	37527	31096
3518	0	26331	30357	37673	43896
3519	0	31462	27389	31291	33033
3520	0	33602	31037	36746	35062
3521	0	32775	29319	37478	27122
3522	0	38107	38794	38567	28055
3523	0	34156	41798	35464	32149
3524	0	27987	41881	36460	42437
3525	0	33177	32209	35700	42856
3526	0	44603	35851	27128	33288
3527	0	27257	44921	40697	29493
3528	0	44179	36459	26067	34095
3529	0	32517	35839	25462	44381
3530	0	39869	38337	40131	25772
3531	0	37546	37171	35946	25013
3532	0	31558	35648	25440	25765
3533	0	25782	43826	25622	25834
3534	0	36611	42099	43928	33541
3535	0	42174	34103	31303	40446
3536	0	39970	42390	32862	29481
3537	0	30423	36274	34643	30613
3538	0	34648	27460	39096	34181
3539	0	44946	27600	39075	36807
3540	0	39748	26921	40447	28176
3541	0	35042	40701	42154	37995
3542	0	37661	37123	32072	29416
3543	0	31002	27004	40895	44037
3544	0	35694	38379	31089	33628
3545	0	40376	40239	40141	34190
3546	0	42856	37344	42840	34759
3547	0	26823	28614	38032	38228
3548	0	40952	39595	30394	29275
3549	0	33772	25868	35044	41719
3550	0	27381	32972	27937	26294
3551	0	28505	31376	43813	39571
3552	0	34469	30530	39977	34422
3553	0	29652	27435	36657	30532
3554	0	26475	26087	38974	31898
3555	0	31129	39961	42070	34199
3556	0	43794	34765	41919	38993
3557	0	42751	40409	27136	33614
3558	0	34909	28483	28481	44712
3559	0	33785	36089	35669	39498
3560	0	33697	34560	36972	28898
3561	0	30408	28567	27566	41519
3562	0	28919	25061	32493	26208
3563	0	28064	37605	27412	35711
3564	0	31570	35899	27538	27561
3565	0	39932	28520	42691	39839
3566	0	43930	32491	28689	32058
3567	0	39136	39815	43752	32212
3568	0	25656	38411	37757	36697
3569	0	27746	43954	35628	43275
3570	0	36779	32243	38150	30771
3571	0	41140	36283	28231	42896
3572	0	28540	40009	33224	33920
3573	0	33820	32540	31826	37596
3574	0	44980	31954	39133	43612
3575	0	43053	30448	31513	30006
3576	0	32847	28878	25177	34265
3577	0	35193	28629	30218	43485
3578	0	37096	27736	40080	41122
3579	0	29487	30716	28029	29781
3580	0	37505	25285	43491	32769
3581	0	33168	36113	43950	43927
3582	0	37571	43176	29611	29834
3583	0	28025	39885	32803	32713
3584	0	29306	40781	44810	43335
3585	0	35335	41556	35685	25912
3586	0	25404	41865	41004	44136
3587	0	33345	42501	39113	33306
3588	0	35324	35942	25089	28464
3589	0	39994	35735	42199	38737
3590	0	40633	43084	40092	28420
3591	0	30398	43291	27086	43643
3592	0	42499	40379	36180	41968
3593	0	37976	35600	26563	43375
3594	0	34656	43617	39106	40981
3595	0	37876	29942	32373	32096
3596	0	42387	36861	39661	43475
3597	0	43600	36942	39308	44541
3598	0	25029	33959	26582	37560
3599	0	41890	43801	29867	33312
3600	0	33487	42440	38842	27315
3601	0	30980	29814	39751	31085
3602	0	39282	25655	25115	25993
3603	0	34901	28930	31267	39706
3604	0	37598	38459	37473	28748
3605	0	32433	29704	42480	29714
3606	0	38550	34578	40872	27272
3607	0	28535	25067	41680	29439
3608	0	30775	26945	44337	28658
3609	0	40801	43874	27506	27442
3610	0	29040	28948	28056	43685
3611	0	33134	36699	33171	41435
3612	0	43211	44309	40470	30385
3613	0	35384	36610	25231	39161
3614	0	34682	30795	36018	44625
3615	0	35531	27839	41377	35911
3616	0	34875	37580	25620	35734
3617	0	27681	25363	36817	29776
3618	0	38814	36477	26676	38278
3619	0	28962	31910	35481	26295
3620	0	31251	44030	34890	32413
3621	0	44065	35909	42136	40979
3622	0	36566	38896	37427	38225
3623	0	32998	27321	40132	31787
3624	0	38099	31830	27050	38943
3625	0	39773	42778	35845	32529
3626	0	36882	29948	32297	36442
3627	0	32987	28593	43896	30187
3628	0	28472	40087	43332	40033
3629	0	37017	34143	27475	36063
3630	0	33498	28867	26184	35718
3631	0	30440	36145	30346	36591
3632	0	40692	34860	37608	31888
3633	0	39386	42911	38801	35359
3634	0	27164	43358	37435	29663
3635	0	44707	31550	25884	41359
3636	0	28896	28406	41816	36338
3637	0	30604	36504	33026	44057
3638	0	38855	36579	30294	27120
3639	0	39084	27363	26908	36064
3640	0	44322	32569	44319	31879
3641	0	27629	30056	36509	37416
3642	0	29132	42861	38525	41715
3643	0	38960	42463	32797	25280
3644	0	30718	25025	41825	25332
3645	0	37595	35282	31150	39890
3646	0	26750	30722	25876	39765
3647	0	33267	25110	29006	27743
3648	0	43426	29028	40647	30444
3649	0	40556	39515	25318	38893
3650	0	29233	39252	31880	26333
3651	0	31815	36592	36792	32894
3652	0	32435	37392	36802	41425
3653	0	34460	37609	28175	36657
3654	0	28895	28866	36000	28975
3655	0	44107	37432	38922	34576
3656	0	25207	29761	40234	30157
3657	0	33299	35897	25559	37614
3658	0	27280	28477	43256	40068
3659	0	44043	33895	39910	36943
3660	0	31630	44900	39386	43786
3661	0	32974	30994	44623	38439
3662	0	30354	40291	25053	25888
3663	0	32855	28182	26790	38462
3664	0	25465	39795	37251	29945
3665	0	43090	44249	39109	41864
3666	0	37548	42977	41692	42757
3667	0	25229	35332	26076	31889
3668	0	31286	43484	28238	42961
3669	0	43432	43649	33481	26575
3670	0	29225	37591	32657	42381
3671	0	25290	34314	28928	44261
3672	0	38927	29834	29319	44442
3673	0	36408	31072	25050	39878
3674	0	25236	29532	32415	32941
3675	0	27448	39601	34290	35559
3676	0	31379	41757	33571	30529
3677	0	34515	40812	27076	41715
3678	0	34823	44386	31191	31760
3679	0	40849	26119	27590	27062
3680	0	42214	41883	37610	26816
3681	0	25050	41600	31261	33040
3682	0	37898	29271	40744	33716
3683	0	28373	42325	34286	34631
3684	0	39176	30753	36823	38972
3685	0	31528	40604	44836	35433
3686	0	40284	34682	39912	42300
3687	0	28168	40016	44843	40560
3688	0	39564	35062	32794	27872
3689	0	29072	29467	25277	35788
3690	0	38673	34713	34750	33615
3691	0	43299	42583	42347	40454
3692	0	26899	27748	41037	39937
3693	0	41293	34079	25174	43873
3694	0	38802	26726	28143	30486
3695	0	40120	39609	25389	34933
3696	0	31921	28988	36949	39339
3697	0	25409	35060	36871	35687
3698	0	32798	43854	26368	43715
3699	0	38919	44894	36550	37571
3700	0	41071	25712	27104	34032
3701	0	44851	27018	38784	33722
3702	0	34959	32870	26748	26032
3703	0	33726	36057	38457	29000
3704	0	29579	43044	43447	44125
3705	0	44069	34552	26944	27234
3706	0	38425	37519	32808	32223
3707	0	42348	27365	26726	36904
3708	0	30967	39247	40018	28268
3709	0	33682	37189	29595	42052
3710	0	36776	30396	33429	33689
3711	0	41400	25808	35511	27974
3712	0	29444	29169	26477	32075
3713	0	30559	29271	29258	39922
3714	0	43552	34094	41947	27602
3715	0	33852	43831	31808	34370
3716	0	34335	36703	29459	40503
3717	0	44765	41078	35295	38669
3718	0	32729	28310	42450	32963
3719	0	29508	38718	30908	36573
3720	0	38308	33919	27958	29972
3721	0	38328	30485	43304	43898
3722	0	37841	26165	37460	29642
3723	0	26215	26141	26846	40552
3724	0	43071	30499	43133	26330
3725	0	36570	40449	40884	40606
3726	0	41306	30173	31173	33153
3727	0	39336	36759	28982	32440
3728	0	25162	27689	43318	29318
3729	0	27030	30584	32693	31653
3730	0	34012	42964	43939	42706
3731	0	42573	28242	29383	28519
3732	0	32344	34756	31151	34762
3733	0	29211	30119	29656	37518
3734	0	38177	35122	29933	28057
3735	0	42537	33329	38732	28070
3736	0	35487	34137	31550	30391
3737	0	36908	29453	25118	39822
3738	0	32459	34538	31784	44765
3739	0	44190	30503	28924	32649
3740	0	38411	34889	42046	25609
3741	0	33120	28857	38641	39752
3742	0	44232	43001	29558	35366
3743	0	37001	25458	36621	36941
3744	0	28353	42267	25159	35556
3745	0	42800	25961	39478	32814
3746	0	36041	42056	30906	34081
3747	0	41693	42573	32058	30671
3748	0	42354	43224	34727	25079
3749	0	30545	38012	40236	34516
3750	0	25364	37881	39782	32106
3751	0	39110	42784	26502	43478
